製品名,ワイヤレス筋電センサ（乾式）,ワイヤレス筋電センサ（乾式）,ワイヤレス筋電センサ（乾式）,
計測時ID,1,2,3,
計測開始時刻,10/10 16:06:09,10/10 16:06:09,10/10 16:06:09,
サンプリング周波数,200,200,200,
シーケンス数,11284,11284,11284,
PGAゲイン,x12,x12,x12,
補正値キー,FFFFFFFFFFFFFFFFFFFFFFFFFFFFFFFF,FFFFFFFFFFFFFFFFFFFFFFFFFFFFFFFF,FFFFFFFFFFFFFFFFFFFFFFFFFFFFFFFF,
コメント,,,,
ファイル保存形式,演算データ,演算データ,演算データ,
シーケンス番号,EMG01[ｍV],EMG01[ｍV],EMG01[ｍV],
1,0,0,0,
2,-0.0017479,-0.00398816,-0.00440667,
3,-0.00352041,-0.06157028,-0.0036435,
4,-0.00162481,0.01856217,-0.01363852,
5,0.01117669,0.00243721,-0.00396354,
6,0.00881334,0.00334808,-0.00241259,
7,-0.0020187,-0.00608071,-0.00019695,
8,0.00130477,0.01270302,0.00128015,
9,-0.00526831,0.086804,0.00292957,
10,0.00162481,-0.04697165,0.00610533,
11,0.00002462,-0.03761671,0.00342194,
12,0.02205796,0.02823715,-0.00891181,
13,-0.00288034,-0.01322001,0.00088626,
14,-0.0130723,0.00361888,0.00435743,
15,-0.01171829,0.08724713,0.00278186,
16,0.01866064,-0.0359919,-0.00785323,
17,-0.00164942,-0.10199347,-0.00100935,
18,0.00622842,-0.01715893,-0.00312652,
19,0.00494827,-0.01713431,-0.00499751,
20,0.00573606,-0.00324961,-0.00654846,
21,-0.00273263,-0.01073356,-0.00450514,
22,-0.01270302,-0.02838486,-0.00425896,
23,-0.00765628,0.00561296,0.00088626,
24,-0.00489903,-0.04202338,-0.00029542,
25,-0.01257993,0.08104333,-0.00238797,
26,0.00992116,0.03481023,-0.0033727,
27,0.01553412,-0.03966002,-0.00782861,
28,0.00231412,-0.01383546,-0.00179713,
29,-0.02296884,0.00558835,-0.0017479,
30,0.00322499,-0.00290496,-0.00657308,
31,-0.01125055,-0.00263415,-0.00462823,
32,-0.00128015,-0.00940418,-0.00243721,
33,0.00758243,0.02717856,0.00376659,
34,-0.00965036,0.00317576,0.00371736,
35,0.00662231,-0.03461328,0.00514522,
36,0.00612995,0.01346619,0.00334808,
37,0.00733624,-0.11895545,-0.00681926,
38,0.01016734,-0.01395856,-0.00216641,
39,0.01154597,-0.00327423,-0.0022895,
40,0.00435743,0.0036435,-0.00425896,
41,-0.01642038,-0.00452976,-0.00544064,
42,-0.01216142,0.00327423,0.00096011,
43,-0.00130477,-0.02725242,-0.00145248,
44,0.00120629,0.04721783,0.0033727,
45,-0.00315114,-0.00814865,-0.00300343,
46,-0.01048738,-0.0130723,0.00152633,
47,0.00305266,-0.01053662,0.00022156,
48,0.00425896,0.05076286,-0.01001963,
49,-0.00068931,-0.04153101,-0.01565722,
50,0.01324463,-0.01257993,-0.00706544,
51,-0.00514522,0.03867529,0.00115706,
52,-0.00588377,-0.04121097,-0.00851792,
53,0.00354503,-0.02540605,-0.00731162,
54,0.02530758,0.0572867,-0.00231412,
55,-0.00580991,-0.02887722,-0.01326924,
56,0.00214179,0.01553412,0.00169866,
57,0.00893643,0.00219103,-0.00905952,
58,-0.01065971,-0.00950265,-0.00189561,
59,0.00214179,-0.00096011,0.00290496,
60,-0.01693737,-0.00317576,-0.00411125,
61,0.00448052,-0.00248644,-0.00056622,
62,0.00465285,0.05260923,-0.01043814,
63,0.01152135,-0.06230883,0.0095765,
64,0.00440667,0.02811406,-0.00211717,
65,0.00236335,-0.04955657,-0.00100935,
66,0.00571144,-0.02368277,-0.00433281,
67,0.01740511,-0.01836523,-0.00398816,
68,-0.02626769,0.00167404,0.00177252,
69,0.00093549,0.02934497,0.00019695,
70,-0.01602649,0.01174291,-0.01430321,
71,-0.01164444,-0.01001963,0.00014771,
72,0.00704082,-0.07030976,-0.00987192,
73,0.00425896,0.01179215,-0.00780399,
74,0.00832097,-0.01930072,-0.0062038,
75,0.01110284,-0.01065971,0.0040374,
76,0.00433281,-0.00684388,-0.00386507,
77,0.0039143,-0.00465285,-0.00275725,
78,-0.00827174,-0.00041851,-0.00179713,
79,-0.00416049,-0.00142786,0.00167404,
80,-0.01989156,0.0190053,0.00164942,
81,0.01614958,0.00224026,-0.01176753,
82,0.00531755,-0.06245654,-0.00327423,
83,0.00248644,-0.00950265,-0.0039143,
84,-0.00435743,-0.03133905,0.00667155,
85,0.00352041,-0.00878872,0.00076317,
86,-0.00905952,-0.00460362,-0.00288034,
87,-0.00896105,0.00216641,-0.00083702,
88,0.00206793,0.01962076,-0.0005416,
89,0.01203833,0.03924151,0.00204332,
90,0.00411125,-0.02442132,-0.00519445,
91,0.01149673,-0.01289997,-0.00413587,
92,-0.00514522,0.00571144,-0.01368775,
93,0.0033727,-0.0175282,-0.01097975,
94,0.00551449,-0.0082225,-0.00526831,
95,0.00386507,-0.00041851,-0.00610533,
96,0.00477594,-0.00155095,-0.00192022,
97,0.02272266,-0.01713431,0.00041851,
98,-0.01659271,0.05635121,-0.00376659,
99,-0.00534216,-0.06381054,0.00152633,
100,0.00214179,0.00679464,-0.01696198,
101,0.00489903,-0.05455407,-0.00157557,
102,-0.00241259,-0.00785323,-0.00312652,
103,0.00214179,-0.00583453,-0.00642537,
104,0.00071393,-0.00014771,-0.00103397,
105,0.00290496,-0.00236335,0.00251106,
106,0.00064007,-0.00662231,0.00718853,
107,0.00819788,0.00150171,0.00076317,
108,0.00470209,0.01499252,-0.00056622,
109,-0.01294921,-0.03242225,-0.00814865,
110,0.00189561,0.05029511,-0.00573606,
111,0.02082705,-0.03417015,-0.00051698,
112,0.01174291,-0.0093057,-0.0064746,
113,-0.01211219,-0.02885261,-0.00844406,
114,0.00829636,0.01097975,-0.00507136,
115,-0.01555874,-0.02508601,-0.00118168,
116,0.00475133,0.04020163,0.00157557,
117,-0.00315114,0.0200885,0.00219103,
118,0.00349579,0.00105859,-0.00546525,
119,0.00728701,0.01555874,-0.00635151,
120,0.0002708,-0.01558336,-0.00667155,
121,-0.00731162,0.01036429,0.0051206,
122,-0.00460362,0.00901028,0.00669617,
123,0.004579,0.01888221,0.00137862,
124,-0.00760704,0.02407666,0.00162481,
125,0.00448052,-0.13286477,0.01090589,
126,0.00002462,-0.02555376,-0.00691773,
127,0.01324463,0.01789748,-0.00342194,
128,0.00118168,-0.02299346,0.00157557,
129,0.00598224,0.0107828,0.00438205,
130,0.0221072,0.00241259,-0.00605609,
131,0.00216641,-0.00014771,-0.00039389,
132,-0.00992116,0.0039143,0.00083702,
133,-0.0040374,-0.00832097,-0.00022156,
134,-0.01041353,-0.05214148,0.00585915,
135,-0.00445591,0.06797103,0.00194484,
136,-0.01646962,-0.00199408,-0.00130477,
137,-0.00017233,0.00630228,-0.00029542,
138,0.00588377,-0.02508601,-0.00915799,
139,0.00901028,-0.01272764,-0.0068685,
140,-0.00260954,-0.00600686,0.00017233,
141,-0.00162481,-0.02058087,-0.00206793,
142,0.00905952,0.00211717,-0.00937956,
143,-0.01152135,0.01191524,-0.00194484,
144,-0.02026083,-0.04354971,0.00440667,
145,0.01395856,0.02259957,-0.01639576,
146,0.0093057,-0.04423902,-0.00551449,
147,0.01189062,-0.00231412,-0.00182175,
148,0.01198909,-0.02323964,-0.00327423,
149,0.01100436,0.00881334,0.00288034,
150,-0.00236335,0.02752322,-0.00366812,
151,-0.02447055,-0.09278624,0.00014771,
152,-0.01289997,0.06248115,-0.01208757,
153,0.0190053,-0.09254006,0.00420972,
154,0.02070396,0.04438673,-0.0002708,
155,-0.00546525,-0.01036429,-0.00384045,
156,0.01546027,-0.00608071,-0.00920723,
157,-0.00132939,0.00120629,-0.0039143,
158,-0.00632689,-0.00509598,-0.00460362,
159,0.00637613,0.010512,0.00435743,
160,-0.01011811,0.08003398,0.00617918,
161,-0.00361888,-0.00773013,-0.01004425,
162,0.01014272,-0.06565691,0.00241259,
163,0.01056124,-0.02577532,-0.00359427,
164,0.00169866,-0.01580493,0.00140324,
165,-0.00672079,0.01203833,0.00002462,
166,0.00411125,-0.03350546,-0.00290496,
167,0.01363852,0.04953195,-0.00361888,
168,-0.00644999,0.01435245,0.00716391,
169,0.00792708,-0.02134404,-0.00396354,
170,0.00445591,0.08170802,0.00260954,
171,0.01925148,-0.0074101,-0.00728701,
172,0.00893643,-0.02415052,-0.00169866,
173,-0.02168869,-0.01779901,-0.0074101,
174,-0.01260455,-0.00263415,-0.00733624,
175,-0.01934996,0.01041353,-0.00324961,
176,0.00211717,0.05137832,0.00342194,
177,0.00864101,-0.02127018,-0.00556373,
178,0.00435743,-0.04364818,-0.00009847,
179,-0.00009847,-0.0039143,0.00132939,
180,0.00992116,-0.01516485,-0.00979807,
181,-0.00088626,-0.00669617,-0.00140324,
182,0.00014771,-0.00681926,0.00125553,
183,-0.00568682,-0.04684856,0.00420972,
184,0.00913338,0.10920662,0.00371736,
185,0.00428358,0.02890184,0.01499252,
186,-0.01262917,-0.11634592,-0.00610533,
187,0.02053163,0.02631692,0.00051698,
188,-0.00411125,-0.0192761,-0.00519445,
189,-0.00644999,-0.00386507,-0.01011811,
190,-0.00366812,-0.00716391,-0.0067454,
191,-0.01841446,0.05622812,-0.00743472,
192,-0.00386507,-0.06115177,-0.00684388,
193,0.01459863,-0.03426862,-0.00475133,
194,-0.00856716,-0.00854254,-0.00915799,
195,0.00534216,-0.01115207,-0.0036435,
196,-0.00329885,0.02639078,-0.00883796,
197,0.03119134,-0.03264382,-0.00913338,
198,0.01134902,-0.04709474,-0.00361888,
199,-0.02127018,0.03266844,-0.00361888,
200,-0.00544064,0.00805017,-0.01565722,
201,0.01031505,-0.01371237,-0.01851293,
202,0.00290496,-0.01622344,-0.00901028,
203,-0.00268339,-0.0130723,-0.00460362,
204,0.0040374,0.01221066,-0.00388969,
205,0.01696198,-0.01666656,-0.01373699,
206,-0.00194484,0.00219103,-0.01097975,
207,0.00755781,-0.00305266,-0.00118168,
208,-0.01437707,0.01573107,-0.01740511,
209,0.0067454,-0.00260954,-0.00416049,
210,-0.00773013,-0.02415052,-0.00526831,
211,-0.00290496,-0.0919246,-0.00709006,
212,0.0008124,0.00901028,-0.00952727,
213,0.01203833,-0.01102898,-0.00888719,
214,-0.01373699,0.01112746,-0.00251106,
215,-0.00546525,-0.00487442,-0.00470209,
216,-0.01486943,0.02407666,-0.0051206,
217,0.00777937,-0.02693238,-0.00088626,
218,0.00925647,0.0207532,-0.00041851,
219,-0.00846868,0.00206793,-0.01174291,
220,0.01221066,-0.12476536,-0.02353506,
221,0.01154597,0.03082207,-0.0148202,
222,-0.00253568,-0.04034934,-0.00753319,
223,0.00361888,0.00140324,-0.01117669,
224,-0.00164942,-0.07528265,-0.00268339,
225,0.02912341,0.04611001,-0.01038891,
226,-0.01006887,-0.03690278,-0.00649922,
227,-0.01250608,0.01029043,0.00265877,
228,-0.00743472,-0.00696697,-0.00869025,
229,-0.00103397,-0.01080742,-0.00716391,
230,-0.00327423,0.00302805,-0.00489903,
231,0.01174291,0.0074101,0.00580991,
232,0.01201371,-0.01006887,-0.00056622,
233,-0.00452976,0.00433281,-0.01191524,
234,-0.00448052,-0.0664447,0.01203833,
235,0.00859177,-0.00790246,0.01201371,
236,-0.00105859,-0.00169866,-0.00157557,
237,-0.00477594,-0.00334808,0.00354503,
238,0.00285572,0.00167404,0.00438205,
239,-0.00260954,0.02515987,0.00979807,
240,-0.00305266,-0.03394859,0.00667155,
241,-0.00046775,-0.0385522,-0.00728701,
242,0.00219103,-0.04633157,-0.00475133,
243,0.00475133,0.05868994,-0.01216142,
244,-0.00093549,-0.03956155,-0.01014272,
245,0.00014771,-0.00019695,-0.00078778,
246,0.00142786,0.01371237,0.00004924,
247,-0.00044313,-0.00635151,-0.00600686,
248,0.01125055,0.03158523,0.00334808,
249,0.00317576,-0.03734591,0.00755781,
250,0.00460362,0.01297383,-0.00068931,
251,-0.00118168,-0.0392169,-0.00066469,
252,-0.00497289,0.08229886,0.00723777,
253,0.00933032,-0.05519415,0.00659769,
254,0.00521907,0.03591805,0.00162481,
255,-0.00199408,-0.06233345,0.00315114,
256,0.00371736,-0.04645466,0.00324961,
257,0.00669617,-0.00216641,0.00177252,
258,-0.00925647,-0.01905454,-0.00162481,
259,-0.00809941,-0.00667155,0.00194484,
260,0.00622842,0.00819788,-0.00612995,
261,-0.00182175,-0.00526831,-0.0136139,
262,0.03239764,-0.01656809,-0.01285073,
263,-0.01154597,0.03786289,-0.02045778,
264,-0.00145248,0.00300343,-0.00071393,
265,-0.00913338,0.0203593,-0.01016734,
266,0.0067454,0.00029542,-0.0096996,
267,0.00452976,-0.09864539,-0.01174291,
268,0.00925647,0.00608071,-0.01088127,
269,-0.00967498,-0.02666158,-0.00275725,
270,0.02764631,0.00275725,-0.00588377,
271,-0.00576067,-0.05061515,-0.01233375,
272,-0.00672079,0.06735557,-0.00819788,
273,0.00487442,-0.02255033,-0.00792708,
274,-0.00841945,-0.01371237,-0.00376659,
275,-0.00354503,-0.04549455,-0.01221066,
276,-0.00339732,0.01068433,-0.00859177,
277,0.0040374,-0.01425398,0.00521907,
278,0.02225491,0.01228451,-0.0005416,
279,0.01075818,-0.02833562,0.00157557,
280,-0.01248146,0.02405204,0.00317576,
281,-0.01755282,0.03141291,0.00462823,
282,0.00280648,-0.03586881,-0.01984232,
283,0.01659271,0.01149673,-0.00888719,
284,0.01326924,-0.01666656,-0.00100935,
285,-0.00125553,-0.00657308,-0.0093057,
286,-0.00103397,-0.01289997,-0.01152135,
287,0.01568183,0.00103397,-0.00881334,
288,-0.00379121,0.00950265,-0.01287535,
289,0.00871487,-0.03956155,0.00177252,
290,-0.01134902,0.03030508,-0.00352041,
291,0.00226488,0.00199408,-0.00103397,
292,0.00162481,0.00576067,-0.00285572,
293,0.00179713,-0.04081708,-0.00920723,
294,0.00004924,0.0008124,-0.00600686,
295,0.00179713,0.01179215,0.00526831,
296,-0.00152633,0.02392895,0.00120629,
297,0.00056622,-0.05425865,-0.00477594,
298,-0.00448052,0.02900032,-0.00743472,
299,0.00423434,-0.03146214,-0.00273263,
300,0.00420972,0.02131942,-0.00290496,
301,0.00251106,-0.01196448,-0.00128015,
302,0.01043814,-0.02833562,-0.00893643,
303,0.00854254,0.01829137,-0.01614958,
304,0.00224026,0.00721315,-0.00118168,
305,-0.00994578,0.02853257,-0.01701122,
306,0.00814865,-0.12035869,-0.01454939,
307,0.00078778,0.06201341,-0.01518947,
308,0.00881334,0.02028545,-0.00472671,
309,-0.00051698,-0.03709972,-0.01400779,
310,0.00292957,0.00312652,-0.01405703,
311,0.03023123,0.04359895,-0.00265877,
312,0.01627267,-0.01878374,-0.00731162,
313,0.01006887,-0.07769524,-0.01093051,
314,-0.02973886,-0.01930072,-0.01553412,
315,0.00118168,0.04347585,0.00482518,
316,0.01309692,0.00032004,-0.00745933,
317,-0.0025603,-0.01750359,-0.00989654,
318,-0.00401278,-0.04839951,-0.01127517,
319,0.00869025,0.04546993,-0.00851792,
320,0.0051206,-0.01787286,-0.01016734,
321,0.00388969,-0.01925148,-0.00531755,
322,-0.01164444,0.03641041,-0.00974883,
323,0.0017479,-0.04281116,-0.00856716,
324,0.00096011,-0.03030508,-0.00777937,
325,0.01683889,-0.01228451,-0.00731162,
326,-0.00583453,0.0190053,-0.01176753,
327,0.00723777,-0.01063509,-0.01063509,
328,0.00327423,0.03387473,-0.01203833,
329,-0.01189062,-0.02767093,-0.00524369,
330,-0.00179713,-0.00659769,-0.00844406,
331,0.00167404,0.02661234,-0.01971923,
332,0.00551449,-0.03980773,0.00034466,
333,-0.00317576,-0.00226488,-0.00819788,
334,-0.00322499,0.02875413,-0.01125055,
335,0.00987192,-0.03613961,-0.0020187,
336,0.00226488,0.01457401,-0.00379121,
337,0.01627267,-0.01740511,-0.00113244,
338,-0.00253568,-0.02501216,0.0002708,
339,-0.02789249,-0.037469,0.00022156,
340,0.00285572,-0.03966002,-0.01265379,
341,0.0107828,0.004579,-0.00265877,
342,-0.00004924,-0.01112746,-0.00937956,
343,-0.00644999,-0.01917763,-0.00278186,
344,0.00819788,0.02666158,-0.00189561,
345,0.00300343,-0.01191524,-0.00120629,
346,0.01211219,0.01376161,0.01467249,
347,0.00068931,0.01056124,0.00265877,
348,0.01386008,-0.03242225,0.00152633,
349,-0.00120629,-0.02700624,-0.01063509,
350,-0.00563758,0.05770521,0.00192022,
351,-0.00704082,-0.0306005,-0.01344157,
352,-0.0039143,-0.07698131,-0.01075818,
353,0.00022156,0.05265847,-0.0022895,
354,0.0090349,0.00312652,-0.00482518,
355,-0.00204332,-0.0962328,0.0002708,
356,-0.00507136,0.08798568,0.01472172,
357,-0.01038891,0.02159022,0.00088626,
358,0.01312153,-0.01499252,0.0082225,
359,0.01129978,-0.03158523,0.00273263,
360,0.00093549,-0.03995544,-0.00551449,
361,-0.0051206,-0.00667155,0.00551449,
362,0.00438205,0.02582456,-0.00770552,
363,0.00521907,0.0138847,-0.00285572,
364,-0.0040374,-0.07616891,-0.01248146,
365,0.00856716,0.0005416,0.00507136,
366,-0.00736086,-0.03357931,0.00238797,
367,-0.00401278,-0.09980244,-0.01678966,
368,0.00802555,0.06171799,0.01398317,
369,0.00435743,-0.05433251,-0.01075818,
370,0.00440667,0.04482986,0.00499751,
371,0.01789748,0.00595762,0.00105859,
372,-0.0033727,-0.05167374,0.00448052,
373,0.00777937,0.00354503,0.01122593,
374,0.00408663,0.00893643,0.00905952,
375,-0.00992116,-0.02432285,0.00805017,
376,0.00192022,0.00470209,0.00194484,
377,-0.01413088,0.00019695,-0.00004924,
378,-0.00398816,-0.0672571,-0.00536678,
379,0.00657308,0.00032004,0.01289997,
380,-0.0048498,-0.0031019,0.0064746,
381,0.00388969,0.06373669,0.0082225,
382,-0.00982269,-0.04305734,-0.01450016,
383,-0.0076809,0.04857184,0.00704082,
384,0.00388969,-0.02562761,0.0002708,
385,0.00132939,-0.01474634,-0.00238797,
386,0.0068685,-0.02419975,0.00059084,
387,0.00039389,-0.0672571,-0.00780399,
388,0.00805017,-0.01260455,-0.00662231,
389,0.00014771,0.0090349,-0.00241259,
390,0.00076317,0.05312621,-0.00199408,
391,0.00521907,-0.01211219,-0.01516485,
392,0.00967498,-0.04980275,0.0025603,
393,-0.00489903,0.07498723,-0.00169866,
394,0.00162481,-0.03611499,0.0010832,
395,-0.01093051,-0.03611499,-0.00169866,
396,-0.00388969,-0.07195919,-0.01171829,
397,0.01097975,0.00260954,-0.00420972,
398,0.00893643,-0.0138847,-0.00521907,
399,-0.0005416,-0.02119633,0.00091088,
400,-0.00928109,-0.02740013,0.00241259,
401,-0.00091088,0.02269804,0.00278186,
402,0.01152135,-0.00974883,-0.00736086,
403,0.01750359,0.02481521,-0.00164942,
404,-0.01041353,-0.05878842,0.00211717,
405,-0.01351543,-0.05356934,-0.01174291,
406,0.00489903,-0.02247648,0.00145248,
407,0.00706544,0.01521409,-0.01302306,
408,0.0175282,-0.00699159,0.00502213,
409,-0.00243721,-0.10551388,0.00044313,
410,-0.00347118,0.1353266,-0.00450514,
411,-0.00002462,-0.04694703,0.00019695,
412,0.00041851,0.00433281,0.00736086,
413,0.00366812,-0.01755282,0.00445591,
414,0.00494827,0.05263385,-0.0008124,
415,0.01011811,-0.00723777,0.00132939,
416,-0.00679464,-0.00243721,0.00736086,
417,-0.00231412,0.06134871,0.00834559,
418,0.01073356,-0.04512528,0.0020187,
419,0.00379121,0.02764631,0.0033727,
420,0.00918261,-0.00374198,-0.00292957,
421,0.00241259,-0.02764631,-0.00728701,
422,-0.00187099,0.01718355,-0.00216641,
423,-0.01097975,-0.03783827,-0.00194484,
424,-0.00866563,0.04377127,-0.00300343,
425,-0.00034466,-0.03148676,-0.01149673,
426,0.0110536,0.02730166,0.00896105,
427,-0.00588377,0.01548489,-0.00711468,
428,0.00792708,-0.04876878,0.00920723,
429,-0.0008124,-0.01676504,0.00292957,
430,0.00260954,0.0067454,0.00007385,
431,0.00034466,0.02176255,0.01115207,
432,0.00041851,-0.00066469,-0.00352041,
433,0.00814865,-0.00753319,-0.00002462,
434,-0.00802555,-0.04081708,-0.00470209,
435,0.00347118,0.01829137,-0.00216641,
436,-0.00068931,-0.06649393,0.00002462,
437,-0.00644999,-0.00096011,-0.00164942,
438,-0.00041851,0.02488907,0.0005416,
439,0.00743472,-0.05960082,0.00177252,
440,-0.01053662,-0.0477102,-0.00736086,
441,0.00987192,0.00905952,-0.00940418,
442,-0.00115706,-0.00792708,-0.00782861,
443,-0.00758243,-0.01041353,-0.00452976,
444,0.00366812,-0.00238797,-0.00576067,
445,0.00199408,-0.00268339,-0.00669617,
446,0.00440667,-0.004579,-0.00563758,
447,-0.00679464,0.00743472,-0.00684388,
448,0.0079517,-0.00460362,-0.00817326,
449,0.00920723,-0.00600686,-0.00305266,
450,0.00179713,0.0230427,-0.00563758,
451,0.01523871,-0.02267342,-0.00386507,
452,0.00851792,0.0096996,0.00032004,
453,-0.00445591,-0.00300343,-0.00507136,
454,-0.02090091,0.00908414,-0.01075818,
455,0.00206793,0.00056622,-0.00164942,
456,0.00814865,-0.01073356,-0.00041851,
457,0.00827174,-0.00654846,0.00150171,
458,-0.00260954,-0.00908414,-0.00891181,
459,-0.00100935,0.01715893,-0.00608071,
460,-0.00721315,-0.00132939,-0.01088127,
461,0.0005416,-0.00534216,-0.00878872,
462,0.01339234,0.00832097,-0.00733624,
463,-0.01486943,0.0459623,-0.00014771,
464,-0.01125055,-0.00051698,-0.00526831,
465,0.02791711,-0.10738487,-0.01410627,
466,0.01779901,-0.07550422,-0.04145716,
467,-0.00302805,-0.01578031,0.00152633,
468,-0.00580991,0.01799595,-0.01093051,
469,-0.00583453,-0.00329885,-0.01467249,
470,-0.00354503,0.01910377,-0.01383546,
471,0.02287037,0.00967498,-0.00982269,
472,-0.00428358,0.01836523,-0.01666656,
473,-0.0087641,-0.02245186,-0.01102898,
474,0.00502213,-0.01080742,-0.00352041,
475,-0.01930072,-0.00152633,-0.01117669,
476,0.00056622,0.01413088,-0.004579,
477,0.00118168,0.03010814,-0.00465285,
478,0.02262418,0.00162481,-0.00928109,
479,0.01947305,-0.06324432,-0.00167404,
480,-0.0110536,0.03325928,-0.01233375,
481,-0.01531256,-0.0266862,-0.0051206,
482,0.02161484,-0.05425865,-0.0096996,
483,-0.00521907,-0.01363852,-0.00777937,
484,0.00354503,-0.00132939,-0.00263415,
485,0.00583453,-0.00706544,-0.00034466,
486,0.0048498,-0.06799565,0.00371736,
487,-0.00056622,0.08414523,0.00497289,
488,-0.00248644,0.0002708,-0.00238797,
489,0.01706046,0.04894111,-0.01065971,
490,0.01568183,-0.07589811,-0.00878872,
491,-0.00878872,-0.03897071,-0.00359427,
492,0.00032004,-0.00324961,0.00019695,
493,0.00376659,-0.01228451,-0.00238797,
494,-0.01543565,-0.00007385,0.00657308,
495,-0.01299844,-0.04908882,0.0033727,
496,-0.00699159,0.05191992,0.0031019,
497,0.01093051,-0.00551449,-0.00933032,
498,0.00374198,0.00630228,0.01223528,
499,0.00339732,-0.03727205,-0.00649922,
500,-0.00177252,0.04450982,-0.00558835,
501,-0.00625304,0.02661234,0.00580991,
502,0.02176255,-0.00029542,0.00302805,
503,0.00487442,-0.04426364,-0.00044313,
504,0.01179215,-0.03488408,0.01142287,
505,0.00669617,-0.02419975,0.0095765,
506,-0.02112247,-0.01794671,0.00167404,
507,0.02703085,0.01462325,0.01245684,
508,-0.00915799,0.02717856,0.00334808,
509,-0.01016734,-0.01829137,0.00396354,
510,-0.00408663,-0.01349081,-0.00231412,
511,-0.00315114,0.01413088,0.00563758,
512,0.00814865,-0.01602649,-0.00285572,
513,0.00155095,-0.04507604,0.00118168,
514,-0.01856217,0.03956155,0.00278186,
515,0.01371237,0.01683889,0.00866563,
516,0.01248146,-0.03165909,0.0025603,
517,-0.00878872,-0.00140324,-0.0064746,
518,-0.00548987,-0.04372204,-0.01166906,
519,0.02927112,-0.05635121,-0.00083702,
520,-0.0130723,0.13436649,-0.00125553,
521,-0.00243721,-0.02816329,-0.00610533,
522,-0.00155095,0.00411125,-0.00758243,
523,0.01762668,0.0020187,0.00064007,
524,-0.01570645,-0.0136139,-0.00334808,
525,0.00334808,-0.01257993,0.00371736,
526,-0.00731162,-0.00859177,0.00386507,
527,-0.0031019,-0.00071393,-0.00280648,
528,-0.00913338,0.06218574,-0.01767591,
529,0.00573606,-0.06964507,0.00438205,
530,0.0133431,0.02444594,0.00339732,
531,0.01728202,-0.02895108,0.00809941,
532,0.00617918,0.01016734,0.00288034,
533,0.00657308,-0.05221534,-0.00091088,
534,-0.01789748,-0.01260455,-0.00556373,
535,0.00649922,0.03941384,0.0033727,
536,0.01093051,-0.03714896,-0.00029542,
537,0.02353506,-0.02082705,-0.0008124,
538,-0.02267342,0.010512,0.01558336,
539,-0.00600686,0.00004924,-0.00598224,
540,0.0067454,-0.01161982,-0.00472671,
541,-0.00388969,-0.01708508,0.00470209,
542,0.01080742,-0.01075818,0.00465285,
543,0.00187099,-0.02279651,0.00534216,
544,0.0064746,-0.00925647,0.00819788,
545,-0.00236335,-0.05221534,0.00312652,
546,0.00438205,0.02968963,0.00236335,
547,-0.00384045,0.02565223,0.00817326,
548,0.00408663,-0.00482518,0.00844406,
549,-0.00649922,-0.00637613,0.01294921,
550,0.00002462,0.00982269,-0.00339732,
551,0.00450514,-0.01240761,-0.00386507,
552,0.00433281,0.02176255,0.00521907,
553,0.01026582,-0.03426862,0.0048498,
554,0.00241259,0.00128015,-0.0008124,
555,-0.015091,0.00704082,0.00189561,
556,0.00120629,-0.05740979,0.00829636,
557,0.00548987,0.00659769,-0.00770552,
558,0.00546525,-0.02282113,-0.00019695,
559,-0.00777937,0.05893612,0.00347118,
560,0.00654846,-0.05334778,-0.00612995,
561,0.00809941,-0.08220038,0.0136139,
562,0.00177252,-0.02973886,0.01117669,
563,0.00359427,0.00334808,-0.00187099,
564,0.01457401,0.01004425,-0.00192022,
565,-0.0067454,0.00285572,0.00103397,
566,-0.0110536,-0.01154597,0.0010832,
567,0.00096011,-0.03810907,-0.00093549,
568,0.00361888,-0.04335276,0.00297881,
569,0.00913338,0.0074101,0.00384045,
570,-0.00248644,-0.05002431,0.00292957,
571,-0.00280648,0.02434746,-0.00657308,
572,-0.00548987,-0.0138847,-0.00059084,
573,0.01826675,-0.00420972,-0.0031019,
574,-0.00260954,-0.0221072,-0.0051206,
575,0.00145248,0.02365815,-0.00388969,
576,0.00585915,-0.01176753,-0.01043814,
577,0.00029542,-0.0392169,-0.00696697,
578,0.00179713,0.0909891,-0.01122593,
579,0.00155095,-0.07365785,-0.00721315,
580,0.00696697,0.04446059,0.0036435,
581,0.01570645,-0.05423404,0.00066469,
582,0.00322499,-0.00438205,-0.00450514,
583,-0.00347118,-0.05509568,0.00214179,
584,0.01541103,0.06174261,-0.01041353,
585,-0.00489903,0.01223528,-0.00635151,
586,-0.00915799,-0.02417514,-0.00755781,
587,-0.0159034,-0.02053163,-0.00100935,
588,-0.0067454,-0.01893145,-0.00659769,
589,0.02530758,-0.05817296,-0.00413587,
590,-0.00962574,-0.00105859,-0.00305266,
591,-0.00494827,0.0107828,-0.00199408,
592,-0.00428358,-0.0204824,-0.01262917,
593,0.00416049,-0.00600686,-0.00819788,
594,0.00167404,-0.01720817,0.01004425,
595,0.01125055,0.0274986,-0.00544064,
596,0.00408663,-0.02996043,0.00177252,
597,-0.00573606,-0.02865566,0.00236335,
598,-0.01349081,-0.06587848,-0.00440667,
599,0.00004924,0.04089094,-0.0110536,
600,0.00834559,0.08207729,0.00945341,
601,0.00189561,-0.13591744,-0.00088626,
602,-0.00118168,-0.00681926,-0.00096011,
603,0.00115706,0.00238797,-0.00460362,
604,0.00952727,0.01395856,-0.00748395,
605,-0.0062038,-0.02676005,-0.00925647,
606,-0.00817326,-0.02267342,0.00288034,
607,0.02323964,-0.11787225,-0.00580991,
608,-0.00709006,0.04655314,0.00366812,
609,-0.02949268,-0.01102898,0.00103397,
610,0.00438205,0.04020163,-0.0062038,
611,0.0025603,-0.05654815,-0.01056124,
612,0.01506638,0.02434746,-0.00617918,
613,0.00487442,0.00509598,0.00167404,
614,0.0102412,0.01004425,-0.01257993,
615,0.0090349,0.00322499,-0.00130477,
616,0.00268339,-0.01553412,-0.00248644,
617,-0.00374198,0.02725242,-0.0079517,
618,0.0096996,-0.10196885,-0.02907417,
619,0.00002462,0.04670085,-0.01309692,
620,-0.00056622,0.00302805,-0.00883796,
621,0.0048498,-0.04052166,-0.00630228,
622,0.00494827,0.02956654,-0.01287535,
623,-0.00029542,-0.02360892,0.00487442,
624,-0.00211717,-0.03141291,0.00384045,
625,0.00051698,-0.04318044,-0.01085665,
626,-0.00711468,-0.0393646,-0.00315114,
627,-0.01381085,0.03724743,-0.01235837,
628,0.00979807,-0.06506607,-0.00248644,
629,-0.00290496,0.05233843,-0.00608071,
630,-0.00236335,-0.0230427,-0.01043814,
631,0.0121368,0.02287037,-0.00952727,
632,0.00654846,-0.07725211,0.00753319,
633,-0.00711468,0.00856716,-0.01314615,
634,0.02077782,0.01358928,-0.004579,
635,-0.02247648,0.02186102,0.00558835,
636,0.00199408,-0.07092522,0.00083702,
637,0.00162481,0.02077782,-0.00696697,
638,-0.00041851,-0.05339702,-0.00524369,
639,-0.00797632,-0.00187099,0.01093051,
640,0.00297881,0.01602649,-0.00933032,
641,0.00551449,-0.01422936,0.00521907,
642,-0.00019695,0.00706544,0.00546525,
643,0.01755282,0.00312652,0.00605609,
644,-0.00334808,-0.03399782,0.00807479,
645,-0.01405703,-0.00630228,-0.00489903,
646,-0.00088626,0.00002462,-0.00162481,
647,0.00388969,-0.00100935,-0.00219103,
648,0.00438205,0.0148202,0.00470209,
649,0.00056622,0.00834559,-0.00093549,
650,-0.00113244,-0.00445591,0.00805017,
651,-0.00125553,0.01728202,-0.00068931,
652,-0.00610533,-0.04416517,-0.00605609,
653,-0.00558835,0.01755282,-0.00489903,
654,-0.00819788,-0.02136865,0.00088626,
655,0.0187345,-0.00576067,0.00066469,
656,0.00433281,-0.00137862,-0.00925647,
657,-0.01336772,-0.02636616,-0.00612995,
658,-0.01383546,-0.01565722,-0.00366812,
659,0.00952727,0.00745933,0.00096011,
660,0.02442132,-0.05172297,-0.01949767,
661,0.00297881,-0.00211717,-0.00324961,
662,-0.01905454,0.06361359,-0.01216142,
663,0.00827174,-0.02976348,-0.01688813,
664,-0.01373699,0.02195949,-0.01211219,
665,-0.01235837,-0.01260455,-0.01435245,
666,-0.00605609,0.01937457,-0.00878872,
667,0.01937457,-0.05278156,-0.0010832,
668,-0.00312652,-0.02567685,-0.00809941,
669,-0.01112746,0.04839951,-0.01016734,
670,0.01319539,-0.0207532,-0.0048498,
671,-0.0090349,-0.0022895,-0.01102898,
672,0.00113244,0.05800063,-0.00994578,
673,0.00893643,-0.06607542,-0.00649922,
674,0.00662231,-0.03010814,-0.00859177,
675,0.0040374,-0.05841914,-0.00610533,
676,-0.00600686,0.02619383,-0.00561296,
677,-0.00435743,0.02944344,-0.00440667,
678,0.01110284,-0.02533219,-0.01257993,
679,0.00644999,0.00915799,0.00017233,
680,-0.00140324,-0.03330851,-0.00992116,
681,-0.01287535,0.04470677,-0.01228451,
682,0.00317576,-0.04583921,-0.00743472,
683,-0.00046775,0.00706544,-0.01179215,
684,0.01102898,0.00859177,-0.00662231,
685,0.00962574,-0.00396354,0.00096011,
686,-0.01245684,-0.05098443,0.0022895,
687,0.00477594,0.01272764,-0.00004924,
688,0.00691773,-0.01568183,0.00524369,
689,0.00068931,-0.00548987,-0.00088626,
690,-0.00548987,-0.00832097,0.00359427,
691,0.01925148,-0.00182175,-0.00644999,
692,-0.00979807,0.00814865,0.00169866,
693,-0.00878872,-0.00519445,-0.00125553,
694,0.0095765,0.01373699,0.00315114,
695,0.00260954,-0.03540106,-0.0005416,
696,0.02676005,0.01742973,0.00952727,
697,-0.02476597,0.01511561,-0.00667155,
698,0.00241259,-0.03776442,0.00088626,
699,-0.01701122,0.13936399,-0.00445591,
700,0.00706544,-0.10273202,-0.00059084,
701,0.00376659,-0.01853755,0.00472671,
702,0.01856217,-0.00243721,0.0025603,
703,-0.00164942,0.00470209,0.00280648,
704,0.00206793,-0.00347118,0.00401278,
705,0.0076809,0.00809941,-0.00561296,
706,-0.00322499,-0.01294921,-0.00224026,
707,0.00950265,0.0076809,-0.00103397,
708,-0.00869025,-0.00854254,-0.01149673,
709,-0.00753319,0.06932503,0.0110536,
710,0.01966999,-0.03375164,-0.00093549,
711,0.00260954,0.0096996,-0.004579,
712,0.00937956,-0.02131942,-0.00460362,
713,-0.00260954,0.04027548,0.00551449,
714,-0.01715893,-0.0351795,-0.00263415,
715,-0.00696697,-0.07720288,-0.00401278,
716,-0.00105859,0.0257507,-0.0008124,
717,0.00088626,-0.04839951,0.00103397,
718,0.00347118,0.04660237,-0.00489903,
719,0.01063509,-0.02673544,0.00051698,
720,-0.00610533,-0.01627267,-0.00297881,
721,-0.00014771,0.0413833,0.004579,
722,0.01011811,-0.05044282,-0.00433281,
723,0.0022895,0.05371705,-0.00420972,
724,0.00893643,-0.00654846,-0.0033727,
725,-0.00777937,0.00465285,-0.00807479,
726,0.00933032,-0.00716391,-0.00765628,
727,-0.00189561,0.02530758,-0.01053662,
728,-0.00238797,-0.02223029,-0.01090589,
729,0.00955189,-0.01004425,-0.00083702,
730,0.00844406,0.02287037,-0.01459863,
731,0.00423434,-0.08791182,-0.00829636,
732,-0.00521907,-0.00017233,-0.00194484,
733,-0.00260954,0.02336273,-0.00034466,
734,0.00194484,-0.01117669,-0.00497289,
735,0.00780399,-0.02001465,-0.01152135,
736,0.01240761,0.05374167,-0.00952727,
737,0.00103397,0.05258461,-0.01358928,
738,0.00819788,-0.0521661,-0.02602151,
739,0.01863603,-0.05275694,-0.00598224,
740,-0.02555376,0.04268807,-0.01125055,
741,-0.01201371,-0.12328827,-0.01014272,
742,0.00612995,0.04820256,-0.01435245,
743,0.01149673,0.00782861,-0.0179221,
744,-0.00502213,0.0559327,-0.0136139,
745,0.00475133,-0.15295328,-0.02469212,
746,-0.00211717,0.08387443,-0.01578031,
747,0.02518448,-0.01112746,-0.0033727,
748,0.01331848,-0.01073356,-0.01137364,
749,-0.00253568,0.06639546,-0.00743472,
750,0.00644999,0.07572578,-0.00780399,
751,0.00514522,-0.00950265,-0.01418012,
752,0.01363852,-0.00051698,-0.01826675,
753,0.03449019,-0.05676972,-0.00723777,
754,-0.01344157,0.02934497,-0.01061047,
755,-0.01848832,0.04121097,-0.00974883,
756,0.01161982,-0.02877875,-0.02740013,
757,-0.0064746,0.0318068,-0.01738049,
758,-0.01703584,-0.02653849,-0.01272764,
759,0.00829636,0.01014272,-0.0074101,
760,0.01418012,-0.0400293,-0.00157557,
761,0.00051698,0.00753319,-0.00965036,
762,0.00883796,-0.021024,-0.00654846,
763,0.00556373,-0.01573107,-0.00100935,
764,-0.00790246,-0.00608071,-0.00608071,
765,-0.00728701,0.01346619,-0.01176753,
766,0.0068685,-0.10834498,-0.01041353,
767,0.00706544,0.1117423,-0.00546525,
768,0.02272266,0.00352041,-0.00241259,
769,-0.00704082,-0.02496292,-0.00428358,
770,-0.00416049,-0.0207532,-0.005933,
771,0.01073356,0.00526831,-0.01056124,
772,0.00489903,-0.02060549,-0.00994578,
773,0.00987192,0.01619882,0.0022895,
774,-0.00155095,0.00157557,-0.00059084,
775,-0.00066469,0.01491867,0.00017233,
776,-0.01445092,0.03000966,-0.00610533,
777,0.01302306,-0.0308713,0.00169866,
778,-0.00773013,-0.02875413,-0.01597725,
779,-0.0031019,-0.02168869,-0.00573606,
780,0.00610533,0.00965036,-0.00782861,
781,0.02131942,0.01445092,0.00051698,
782,-0.01129978,-0.00384045,-0.00438205,
783,-0.010512,0.01029043,0.00206793,
784,0.00091088,-0.03018199,0.01174291,
785,-0.00817326,-0.06582924,0.00164942,
786,0.01474634,0.04995046,0.00558835,
787,0.01245684,-0.06361359,0.00056622,
788,-0.00157557,0.01533718,0.00280648,
789,-0.00546525,-0.00199408,0.0031019,
790,0.00854254,-0.00169866,0.00423434,
791,0.01518947,-0.03485946,0.00548987,
792,0.00162481,0.03737053,0.00219103,
793,-0.00509598,-0.07018667,0.00017233,
794,0.01875912,-0.00162481,0.00753319,
795,0.00017233,0.05824681,0.00536678,
796,-0.01829137,-0.01959614,0.00059084,
797,0.01794671,-0.0502705,0.00275725,
798,0.00866563,0.00600686,-0.00120629,
799,0.01297383,-0.03513026,0.01309692,
800,-0.01309692,-0.01016734,0.01090589,
801,-0.01580493,0.01356466,0.00150171,
802,0.00644999,-0.03173294,-0.00632689,
803,0.00438205,0.00132939,0.00797632,
804,0.00662231,0.08867499,0.00177252,
805,0.00076317,-0.01457401,0.0094288,
806,-0.01073356,-0.00718853,0.00115706,
807,0.00933032,0.02444594,0.00019695,
808,0.00773013,-0.00157557,0.00056622,
809,0.01014272,-0.00019695,0.00696697,
810,0.02370739,-0.0176513,-0.00359427,
811,-0.03013276,-0.00162481,-0.00088626,
812,-0.00782861,0.02752322,0.00950265,
813,0.00999502,-0.10381522,-0.01171829,
814,0.00132939,0.04827642,0.00585915,
815,-0.00908414,0.02530758,-0.00152633,
816,0.01459863,-0.09074292,-0.00662231,
817,0.00654846,0.02705547,-0.01654347,
818,0.01208757,-0.05063977,-0.00204332,
819,-0.00494827,0.01454939,0.00034466,
820,-0.01189062,0.00630228,-0.00499751,
821,0.01568183,0.00327423,-0.00662231,
822,-0.00561296,0.01191524,-0.00347118,
823,-0.00216641,-0.02663696,-0.00866563,
824,0.0187345,-0.00425896,0.00420972,
825,-0.01607573,0.00359427,-0.0053914,
826,-0.0153618,0.05578499,-0.01019196,
827,-0.00260954,-0.06642008,0.0002708,
828,-0.00568682,-0.01541103,-0.01235837,
829,0.02316579,-0.01221066,-0.01073356,
830,-0.00933032,-0.004579,0.00374198,
831,0.005933,0.01787286,0.00342194,
832,0.0068685,0.00576067,-0.00371736,
833,-0.01152135,-0.05873918,-0.00526831,
834,-0.00078778,-0.00334808,-0.00066469,
835,0.00610533,-0.0040374,-0.0051206,
836,0.01910377,0.00339732,0.00398816,
837,-0.0064746,-0.01299844,-0.00088626,
838,0.00032004,-0.02673544,-0.00142786,
839,0.00635151,0.0093057,0.00285572,
840,0.00120629,-0.00297881,-0.00179713,
841,0.00561296,-0.01324463,0.00066469,
842,-0.00521907,-0.09258929,-0.01068433,
843,0.00945341,0.044756,-0.01127517,
844,0.02444594,-0.00802555,-0.01418012,
845,-0.01925148,-0.00324961,0.01176753,
846,-0.00125553,-0.02863104,-0.0008124,
847,0.00869025,-0.01127517,-0.0010832,
848,-0.0025603,0.01597725,0.00573606,
849,0.00029542,0.02636616,-0.00396354,
850,0.00487442,-0.06580462,0.00568682,
851,0.00933032,-0.04113712,-0.00974883,
852,0.02033469,-0.01174291,0.00659769,
853,-0.01934996,0.06373669,-0.01573107,
854,0.00477594,-0.02759707,0.00091088,
855,-0.0002708,-0.02823715,-0.01952228,
856,0.00684388,-0.00187099,0.00841945,
857,0.00194484,-0.10489842,-0.00140324,
858,0.01814366,0.02607074,-0.00371736,
859,0.01518947,0.00699159,0.00132939,
860,-0.00731162,0.02003927,0.00076317,
861,0.00452976,-0.01730664,-0.00243721,
862,0.00398816,-0.05635121,-0.00051698,
863,0.0005416,-0.01659271,0.0025603,
864,0.01166906,0.03412091,-0.00078778,
865,-0.00472671,-0.03584419,-0.00435743,
866,-0.00349579,0.00576067,-0.00933032,
867,0.00622842,0.01811904,-0.00487442,
868,0.00487442,-0.06299814,-0.01314615,
869,0.01486943,-0.0475871,-0.00482518,
870,0.00096011,0.01346619,-0.00731162,
871,-0.01568183,-0.02267342,-0.00384045,
872,-0.00524369,-0.03567186,0.00115706,
873,0.00017233,0.03340698,-0.01043814,
874,0.00534216,0.00083702,-0.00428358,
875,0.00329885,0.01642038,0.00216641,
876,-0.00041851,0.05573575,-0.00699159,
877,-0.00041851,-0.05718823,-0.00814865,
878,0.00649922,-0.03050203,-0.00531755,
879,0.01154597,0.03035432,0.00571144,
880,0.01774977,-0.03092054,-0.00100935,
881,-0.01848832,0.0385522,0.00236335,
882,-0.00435743,-0.02540605,-0.0040374,
883,0.01161982,-0.01767591,-0.01331848,
884,0.0074101,0.01715893,-0.00642537,
885,0.00317576,-0.01979308,-0.00920723,
886,-0.01189062,-0.03306233,-0.01666656,
887,0.00765628,0.01738049,0.00251106,
888,0.0136139,-0.02038392,-0.01511561,
889,-0.00211717,0.00470209,-0.00728701,
890,-0.00974883,0.01395856,-0.00696697,
891,-0.00374198,0.04005392,-0.00748395,
892,0.01048738,-0.05251076,-0.01794671,
893,0.00617918,-0.03488408,0.00327423,
894,-0.00051698,0.01043814,-0.00556373,
895,0.00068931,-0.01068433,0.00361888,
896,-0.01974385,0.02725242,0.00630228,
897,0.00733624,-0.03552416,0.00219103,
898,0.00891181,-0.02735089,-0.00371736,
899,0.00420972,-0.02422437,-0.00425896,
900,0.00605609,0.00128015,0.00534216,
901,-0.01272764,-0.00669617,-0.00704082,
902,0.00987192,-0.03439172,-0.00017233,
903,-0.00125553,0.02186102,-0.01201371,
904,-0.00472671,-0.01986694,0.00844406,
905,0.0136139,0.00292957,0.00465285,
906,-0.00758243,0.00497289,0.0121368,
907,0.01349081,0.00204332,0.00896105,
908,0.00699159,-0.01691275,0.00531755,
909,-0.01314615,-0.01006887,-0.00093549,
910,0.0190053,0.04625772,-0.01285073,
911,0.00413587,-0.04817794,-0.00128015,
912,0.00612995,0.01787286,0.01703584,
913,-0.01454939,-0.022378,-0.01016734,
914,0.00041851,-0.00152633,0.00162481,
915,0.00450514,0.0274986,0.00448052,
916,-0.00568682,-0.0473163,0.0051206,
917,-0.00280648,0.02483983,0.00723777,
918,0.01826675,-0.04446059,0.00113244,
919,-0.00288034,0.04564226,-0.00096011,
920,0.01043814,-0.01543565,0.00288034,
921,0.01065971,-0.05302774,-0.00445591,
922,0.01745435,-0.07900001,-0.00324961,
923,0.0048498,0.04945809,-0.00100935,
924,0.00014771,-0.01302306,0.00324961,
925,-0.00462823,-0.00536678,-0.00659769,
926,0.00118168,-0.00883796,-0.01093051,
927,-0.00265877,-0.04574074,-0.00521907,
928,0.00450514,0.02205796,0.00182175,
929,-0.00132939,0.00507136,0.00066469,
930,-0.01088127,-0.02274728,0.0020187,
931,-0.00014771,-0.06627237,-0.00142786,
932,-0.00721315,0.04916267,-0.01331848,
933,0.0090349,-0.03461328,-0.01001963,
934,-0.00100935,-0.04534684,0.00273263,
935,-0.0090349,0.04450982,-0.00125553,
936,0.00150171,-0.03628732,-0.00014771,
937,0.00238797,0.0002708,0.004579,
938,0.0161742,0.02274728,-0.01053662,
939,-0.00782861,0.02759707,-0.0062038,
940,-0.00206793,-0.01934996,0.00297881,
941,-0.00482518,-0.07045747,-0.00576067,
942,-0.00807479,0.04266345,-0.00534216,
943,-0.00120629,-0.00704082,-0.00312652,
944,0.01893145,-0.01472172,-0.00162481,
945,0.00093549,-0.00556373,0.00514522,
946,-0.01152135,0.02530758,0.00413587,
947,-0.00211717,-0.08894579,0.00384045,
948,-0.00009847,0.04187567,0.00544064,
949,0.00157557,-0.02469212,0.01152135,
950,0.02181178,0.02373201,-0.00022156,
951,-0.02124556,0.01802057,-0.00169866,
952,-0.0082225,-0.02395357,0.00194484,
953,0.01270302,-0.04207261,-0.00551449,
954,0.02328888,-0.02294422,0.00132939,
955,-0.00704082,0.01166906,-0.00140324,
956,-0.00657308,-0.0277694,-0.00226488,
957,-0.00002462,-0.00753319,-0.00859177,
958,0.00460362,0.04921191,-0.00901028,
959,0.00155095,-0.05253538,-0.0020187,
960,-0.01149673,0.00302805,-0.01250608,
961,0.00425896,0.02395357,-0.00913338,
962,0.00610533,-0.04298349,-0.00999502,
963,-0.00189561,0.01610034,-0.00125553,
964,-0.00164942,-0.03276691,-0.00263415,
965,-0.00137862,-0.02195949,-0.00637613,
966,0.00696697,0.00667155,0.0002708,
967,0.0087641,-0.02186102,-0.0096996,
968,-0.01531256,0.0017479,-0.01491867,
969,0.01061047,0.03306233,-0.0051206,
970,-0.01511561,0.00723777,-0.00238797,
971,0.00869025,-0.05467717,-0.00285572,
972,-0.00288034,0.01595264,-0.01179215,
973,-0.00482518,-0.02444594,-0.01398317,
974,0.00802555,-0.01794671,-0.00839483,
975,-0.00654846,-0.00103397,-0.01381085,
976,-0.00573606,-0.01176753,-0.00760704,
977,-0.00622842,-0.03842911,-0.00841945,
978,0.00206793,0.03321004,-0.01395856,
979,-0.01117669,-0.02789249,-0.01203833,
980,0.01075818,-0.05443098,-0.01597725,
981,0.00100935,0.01031505,-0.00317576,
982,0.00051698,-0.03239764,-0.0053914,
983,-0.01019196,0.01043814,-0.00347118,
984,0.0136139,0.02710471,-0.0095765,
985,0.00440667,-0.00150171,0.00347118,
986,0.00612995,-0.06848801,-0.00918261,
987,0.0149679,-0.04903958,0.01708508,
988,-0.00243721,0.02735089,-0.01068433,
989,-0.00290496,-0.01272764,-0.00598224,
990,0.01715893,0.02503677,-0.00654846,
991,-0.01248146,0.04672547,0.00019695,
992,-0.01408165,-0.00009847,0.00317576,
993,0.0005416,-0.07540574,-0.00802555,
994,0.00241259,0.05824681,-0.00100935,
995,-0.02986195,0.00950265,-0.00598224,
996,0.02247648,-0.01376161,-0.01011811,
997,-0.00322499,-0.02370739,-0.00548987,
998,0.00206793,0.02567685,-0.00312652,
999,0.01228451,0.01112746,-0.00489903,
1000,-0.00177252,0.00093549,0.00029542,
1001,-0.00347118,0.01560798,0.00630228,
1002,0.00359427,-0.04839951,-0.00625304,
1003,0.00342194,-0.01408165,-0.01632191,
1004,-0.00238797,0.00869025,0.00994578,
1005,-0.0179221,0.00699159,-0.00347118,
1006,0.01447554,0.00322499,-0.00199408,
1007,0.00915799,-0.01184139,-0.00519445,
1008,-0.00748395,-0.00982269,-0.01238299,
1009,0.00428358,0.00743472,0.00164942,
1010,0.03173294,0.03062512,0.0005416,
1011,-0.03183142,0.01011811,-0.00374198,
1012,-0.0229196,0.01996541,0.00059084,
1013,-0.00329885,-0.06331818,-0.00423434,
1014,0.00864101,-0.08847804,-0.00125553,
1015,0.01080742,0.02565223,0.00182175,
1016,-0.01179215,0.03133905,-0.00241259,
1017,0.01061047,-0.00071393,-0.00039389,
1018,0.01184139,-0.03887224,-0.00576067,
1019,0.00475133,0.01435245,0.00056622,
1020,0.01533718,-0.01863603,0.00595762,
1021,0.00046775,-0.00896105,-0.00361888,
1022,0.00019695,-0.03682892,-0.00807479,
1023,-0.00137862,-0.00433281,-0.00576067,
1024,0.00704082,-0.02557838,-0.00475133,
1025,0.0076809,0.03542568,0.00477594,
1026,0.03109287,0.04113712,-0.00137862,
1027,-0.01110284,-0.02082705,-0.00137862,
1028,-0.01868526,0.00918261,-0.00169866,
1029,0.00361888,-0.04537146,-0.00152633,
1030,-0.01984232,-0.00598224,-0.00157557,
1031,-0.00091088,-0.01016734,0.00339732,
1032,0.00450514,-0.03621347,-0.00206793,
1033,0.00834559,-0.01688813,0.00416049,
1034,0.00905952,0.01166906,-0.00241259,
1035,0.00105859,-0.01275226,0.00120629,
1036,0.01521409,-0.00342194,-0.00167404,
1037,0.01779901,-0.07796604,-0.00302805,
1038,-0.01061047,0.05610502,0.00029542,
1039,0.00041851,0.01398317,0.00273263,
1040,0.00285572,0.01238299,0.00226488,
1041,0.01664195,-0.01112746,0.00681926,
1042,0.01619882,-0.0190053,-0.00598224,
1043,0.00046775,0.03057588,0.00004924,
1044,-0.00864101,-0.04830103,-0.00263415,
1045,-0.00487442,-0.05098443,-0.0121368,
1046,0.00891181,0.07107293,0.00755781,
1047,0.011866,-0.00684388,0.00699159,
1048,0.00051698,-0.01272764,-0.0087641,
1049,-0.00241259,0.00905952,-0.00068931,
1050,0.00371736,-0.01804519,0.0020187,
1051,-0.01467249,0.02257495,-0.00128015,
1052,0.01555874,-0.0462331,-0.00263415,
1053,0.01371237,-0.04155563,0.00100935,
1054,-0.00534216,-0.00477594,0.00152633,
1055,-0.0082225,0.02410128,0.00302805,
1056,0.01287535,-0.02011312,-0.01223528,
1057,-0.00352041,-0.0264154,0.00728701,
1058,-0.00637613,-0.0408417,-0.00588377,
1059,-0.00071393,-0.0181929,-0.01277688,
1060,0.00622842,0.05937925,0.00022156,
1061,-0.00265877,-0.00672079,0.00017233,
1062,-0.00359427,0.00401278,-0.00278186,
1063,-0.00290496,-0.03929075,0.00352041,
1064,0.01184139,0.00952727,-0.01102898,
1065,0.0051206,-0.01937457,0.00268339,
1066,-0.00361888,-0.00482518,-0.00979807,
1067,0.01270302,-0.02114709,-0.00137862,
1068,0.00113244,0.01235837,-0.00482518,
1069,-0.01381085,-0.00379121,-0.00002462,
1070,-0.004579,-0.04261422,0.00339732,
1071,-0.00859177,0.06858648,-0.00521907,
1072,0.00288034,-0.09202307,-0.01174291,
1073,0.0130723,0.02139327,-0.00974883,
1074,-0.00014771,-0.03321004,-0.00248644,
1075,0.00002462,0.01179215,-0.01112746,
1076,-0.00288034,0.04096479,-0.00339732,
1077,0.00324961,-0.02644002,-0.00585915,
1078,-0.00864101,0.02161484,-0.01036429,
1079,-0.00723777,-0.02168869,-0.0079517,
1080,0.01196448,-0.01149673,0.00396354,
1081,0.01080742,0.0053914,-0.01097975,
1082,0.00189561,0.02934497,-0.01715893,
1083,-0.0010832,-0.0870748,-0.0096996,
1084,-0.00413587,0.01001963,-0.0087641,
1085,0.00066469,-0.01666656,-0.00563758,
1086,-0.01176753,0.04044781,-0.00642537,
1087,0.02865566,-0.00770552,-0.00371736,
1088,-0.00253568,-0.04670085,-0.00925647,
1089,-0.02346121,0.02895108,-0.01129978,
1090,-0.00162481,-0.02875413,-0.00819788,
1091,-0.00672079,0.004579,-0.00470209,
1092,0.00649922,0.03734591,-0.00334808,
1093,0.02673544,-0.0306005,-0.00275725,
1094,-0.00068931,0.01211219,0.00130477,
1095,-0.01742973,-0.05738517,-0.00118168,
1096,-0.00743472,-0.00585915,-0.00268339,
1097,0.00041851,0.02119633,-0.00869025,
1098,-0.01073356,-0.02122094,0.00219103,
1099,0.01582954,0.0688819,0.00189561,
1100,-0.0102412,0.0068685,-0.00790246,
1101,-0.00440667,-0.02863104,-0.00317576,
1102,0.00339732,-0.02801558,-0.004579,
1103,-0.01053662,0.06073326,-0.00748395,
1104,0.00413587,-0.00859177,0.00743472,
1105,0.01048738,-0.04305734,-0.01344157,
1106,-0.00576067,-0.02968963,-0.00521907,
1107,-0.00743472,0.02058087,-0.00009847,
1108,0.01592802,0.00302805,-0.01026582,
1109,0.0051206,-0.00723777,0.00718853,
1110,-0.00662231,-0.0008124,-0.00113244,
1111,0.00563758,0.03133905,-0.00275725,
1112,0.00758243,-0.04177719,-0.00145248,
1113,-0.00179713,-0.01235837,0.00189561,
1114,0.01629729,0.10066408,0.00064007,
1115,0.01838984,-0.04549455,0.01491867,
1116,0.00809941,-0.01235837,-0.00022156,
1117,-0.00071393,-0.12193426,-0.0138847,
1118,-0.00659769,0.03549954,-0.01248146,
1119,0.0122599,-0.00462823,-0.00534216,
1120,-0.00219103,0.00076317,-0.00755781,
1121,-0.00915799,0.01447554,-0.00317576,
1122,-0.00509598,-0.03476099,-0.0040374,
1123,-0.00315114,0.00130477,-0.01309692,
1124,-0.00745933,0.0005416,-0.02673544,
1125,-0.00349579,0.0257507,-0.00760704,
1126,0.01912839,0.03367779,-0.00413587,
1127,0.01964537,-0.06102868,0.00610533,
1128,-0.01014272,-0.01383546,-0.00132939,
1129,-0.01115207,-0.01245684,-0.00219103,
1130,0.01041353,0.02026083,0.00285572,
1131,-0.00839483,-0.06491836,-0.00238797,
1132,0.01851293,-0.08717327,-0.0025603,
1133,0.0130723,0.02134404,-0.00866563,
1134,-0.00177252,0.00494827,-0.00482518,
1135,-0.00339732,-0.00167404,-0.00064007,
1136,0.00132939,0.01664195,-0.0067454,
1137,-0.00132939,-0.01952228,-0.01191524,
1138,0.01004425,-0.00214179,-0.00585915,
1139,0.0082225,-0.00009847,0.00004924,
1140,-0.00140324,0.0362627,0.0008124,
1141,0.0020187,-0.04748863,-0.00893643,
1142,-0.00103397,0.05544033,0.00130477,
1143,-0.00177252,0.0130723,-0.00433281,
1144,0.0107828,-0.05812372,-0.00531755,
1145,-0.00046775,-0.00521907,-0.01289997,
1146,0.00241259,-0.01053662,-0.00805017,
1147,0.00992116,-0.02715395,-0.00465285,
1148,-0.0110536,0.04832565,-0.01789748,
1149,0.0261446,-0.02235338,-0.0033727,
1150,-0.00386507,-0.00925647,-0.00908414,
1151,0.00758243,0.00878872,-0.00644999,
1152,0.0002708,-0.00420972,-0.00100935,
1153,0.00091088,-0.03380088,-0.00536678,
1154,-0.00416049,0.03124058,0.00034466,
1155,-0.0031019,-0.01191524,-0.00999502,
1156,0.0020187,0.00083702,-0.010512,
1157,-0.00588377,-0.02772017,-0.00832097,
1158,-0.005933,0.03045279,0.00199408,
1159,0.00056622,-0.01043814,-0.00152633,
1160,0.00937956,-0.03242225,-0.00721315,
1161,0.00056622,-0.04140792,-0.01147211,
1162,-0.0053914,-0.0130723,0.00029542,
1163,0.01971923,-0.04716859,-0.0067454,
1164,0.00152633,0.0513537,-0.00681926,
1165,-0.00352041,-0.0343671,-0.00753319,
1166,0.01161982,0.03146214,0.00150171,
1167,0.00384045,-0.04965504,-0.01075818,
1168,0.00189561,0.00152633,-0.00226488,
1169,0.00096011,0.06405672,0.00238797,
1170,-0.00285572,-0.01701122,-0.00736086,
1171,-0.00470209,0.01400779,-0.00241259,
1172,0.00423434,0.01223528,0.00179713,
1173,0.00534216,-0.03013276,0.00041851,
1174,-0.00386507,-0.01016734,0.00408663,
1175,-0.00216641,0.00120629,-0.00157557,
1176,-0.00167404,-0.00265877,-0.00497289,
1177,-0.00374198,-0.00937956,-0.00359427,
1178,-0.00315114,-0.00169866,-0.0082225,
1179,0.00231412,0.00709006,-0.00398816,
1180,0.00521907,-0.021024,-0.00004924,
1181,0.01344157,0.01516485,-0.00782861,
1182,0.0053914,-0.00635151,-0.00782861,
1183,0.03170832,0.01093051,-0.00502213,
1184,-0.00322499,-0.01189062,0.00226488,
1185,-0.02220567,0.02986195,0.00167404,
1186,-0.00514522,0.00374198,-0.00324961,
1187,-0.00115706,-0.03050203,-0.00866563,
1188,0.00489903,0.04372204,0.00192022,
1189,-0.00386507,-0.03197913,0.0017479,
1190,-0.01198909,-0.0803294,-0.01011811,
1191,0.00731162,0.0121368,0.00105859,
1192,-0.01462325,0.05960082,-0.00967498,
1193,-0.00317576,-0.06989125,-0.0190053,
1194,0.0068685,-0.00007385,-0.00164942,
1195,0.03702587,0.02112247,0.00576067,
1196,-0.00962574,0.05288003,0.00642537,
1197,-0.02735089,0.00684388,-0.00100935,
1198,0.00206793,-0.00416049,-0.00416049,
1199,0.0095765,-0.06939889,0.00206793,
1200,-0.00595762,-0.00507136,-0.00780399,
1201,-0.00797632,-0.0431312,-0.00438205,
1202,-0.0115952,0.01368775,-0.00864101,
1203,0.00580991,0.0318068,-0.00760704,
1204,0.00322499,-0.02968963,-0.00022156,
1205,0.01371237,-0.17168778,0.0022895,
1206,0.00189561,0.06198879,-0.00507136,
1207,-0.00327423,0.02459365,-0.00435743,
1208,0.00046775,0.00494827,0.00408663,
1209,-0.0017479,0.08537614,0.01048738,
1210,-0.00999502,-0.08143722,-0.01166906,
1211,0.00672079,0.02163945,0.00753319,
1212,0.01208757,-0.04372204,0.00556373,
1213,0.00113244,-0.05115675,-0.00206793,
1214,0.00132939,-0.02779402,0.00745933,
1215,-0.00115706,0.06272734,0.00684388,
1216,0.00416049,-0.04130945,-0.0064746,
1217,0.00435743,0.04069399,-0.00068931,
1218,0.01767591,-0.0392169,0.00384045,
1219,-0.016445,0.01474634,0.00487442,
1220,-0.0161742,-0.01216142,-0.00659769,
1221,-0.00475133,0.04606077,0.00182175,
1222,0.00288034,-0.0470455,-0.00992116,
1223,0.00088626,-0.00354503,-0.00851792,
1224,0.0096996,-0.00371736,-0.00322499,
1225,-0.01499252,-0.0190053,-0.00546525,
1226,0.00359427,0.00292957,-0.00989654,
1227,0.00644999,-0.04167872,-0.011866,
1228,-0.00347118,-0.03660736,-0.00999502,
1229,0.00711468,-0.00214179,0.00192022,
1230,0.01112746,0.00066469,-0.00241259,
1231,-0.00918261,-0.03119134,-0.01836523,
1232,-0.00216641,-0.02136865,-0.00561296,
1233,0.00044313,0.05851761,-0.00423434,
1234,0.01112746,-0.00243721,0.00928109,
1235,-0.01137364,0.00827174,-0.0025603,
1236,0.01693737,-0.00100935,-0.00918261,
1237,-0.0148202,-0.03983235,-0.00654846,
1238,-0.01208757,-0.00780399,0.00696697,
1239,-0.00544064,0.00292957,-0.00519445,
1240,0.01250608,-0.00536678,-0.00502213,
1241,0.01619882,-0.02895108,-0.00278186,
1242,-0.01198909,0.04473139,0.00078778,
1243,0.01100436,-0.11513962,-0.00605609,
1244,-0.00699159,0.01516485,0.00192022,
1245,-0.01546027,0.00765628,-0.00733624,
1246,0.00524369,-0.04441135,0.00169866,
1247,0.0025603,0.02826177,0.00167404,
1248,-0.00580991,0.01349081,-0.00164942,
1249,0.01117669,0.00056622,0.00509598,
1250,0.00709006,0.00416049,-0.00179713,
1251,-0.00290496,0.04482986,-0.0149679,
1252,-0.00206793,-0.04662699,-0.01198909,
1253,0.00361888,-0.01179215,-0.00396354,
1254,0.00731162,0.00450514,0.00329885,
1255,0.01043814,-0.03303771,-0.01056124,
1256,-0.00339732,0.00605609,-0.00669617,
1257,0.01922686,-0.04519913,0.00654846,
1258,-0.00376659,0.04894111,-0.00637613,
1259,-0.0090349,-0.04756249,0.0022895,
1260,-0.00022156,0.06883267,0.00524369,
1261,0.01346619,-0.0235843,-0.00096011,
1262,0.00142786,-0.0362627,-0.00622842,
1263,0.0053914,0.03985697,0.00268339,
1264,-0.0010832,-0.03535183,-0.00576067,
1265,0.00723777,0.00691773,-0.00046775,
1266,0.00878872,-0.01061047,-0.00452976,
1267,0.00339732,0.02016236,-0.00032004,
1268,-0.0025603,0.03638579,0.00105859,
1269,-0.00534216,-0.02099938,-0.00312652,
1270,-0.00694235,-0.05979776,-0.0025603,
1271,0.00083702,-0.05544033,-0.0051206,
1272,0.01001963,-0.02095014,-0.01085665,
1273,-0.00878872,0.05248614,-0.00014771,
1274,0.00352041,-0.00711468,-0.00214179,
1275,0.00019695,0.0192761,-0.00583453,
1276,0.0138847,-0.06112715,0.00760704,
1277,0.00324961,-0.00398816,-0.00805017,
1278,-0.00780399,0.02663696,-0.00068931,
1279,-0.0138847,-0.0025603,-0.00347118,
1280,-0.00002462,-0.00514522,-0.00068931,
1281,0.0179221,-0.01898068,-0.00014771,
1282,-0.00497289,-0.02533219,0.00014771,
1283,-0.02902493,-0.07050671,-0.00617918,
1284,0.00155095,0.03687816,-0.01447554,
1285,0.00612995,0.02845871,-0.0096996,
1286,0.00731162,0.01090589,-0.01356466,
1287,-0.00091088,-0.03764133,-0.00841945,
1288,-0.00598224,-0.0167158,-0.01346619,
1289,0.00667155,0.01979308,-0.00315114,
1290,-0.00231412,0.01779901,-0.00637613,
1291,0.00093549,-0.00206793,-0.00226488,
1292,0.01664195,-0.02661234,0.00083702,
1293,0.00854254,-0.03330851,-0.01041353,
1294,-0.02447055,-0.00059084,-0.00679464,
1295,0.00349579,-0.04894111,0.00352041,
1296,-0.00189561,-0.03057588,-0.00231412,
1297,0.00625304,0.00386507,0.00288034,
1298,-0.00625304,-0.00548987,0.0031019,
1299,0.0149679,0.01196448,-0.00243721,
1300,-0.01917763,0.02983734,-0.00083702,
1301,0.00460362,0.05470178,-0.00339732,
1302,0.01248146,-0.02402743,-0.00595762,
1303,0.01472172,-0.01718355,-0.0153618,
1304,-0.02205796,0.01755282,0.00384045,
1305,-0.00979807,-0.04928577,0.00546525,
1306,0.00384045,0.04643005,-0.00901028,
1307,0.01125055,-0.01019196,0.00103397,
1308,0.01272764,0.03990621,0.00204332,
1309,0.0074101,0.00118168,-0.00502213,
1310,-0.00187099,0.00509598,0.00078778,
1311,-0.00366812,-0.00440667,-0.01223528,
1312,-0.00433281,-0.00064007,-0.00785323,
1313,0.01117669,-0.0017479,-0.00450514,
1314,0.00339732,-0.00982269,-0.00194484,
1315,0.01189062,-0.01666656,-0.01004425,
1316,0.00753319,0.08476068,-0.00342194,
1317,0.0033727,-0.04465753,-0.00182175,
1318,-0.00265877,-0.10489842,-0.00654846,
1319,-0.00278186,0.04753787,0.00071393,
1320,-0.00371736,0.07021129,-0.00091088,
1321,-0.0025603,-0.05999471,-0.00066469,
1322,-0.00487442,-0.02518448,-0.00096011,
1323,-0.00182175,0.03148676,0.00029542,
1324,0.01336772,-0.00654846,-0.00955189,
1325,-0.01422936,0.02383048,-0.00977345,
1326,-0.01430321,-0.02570147,-0.00452976,
1327,0.00706544,-0.01531256,-0.0087641,
1328,0.02661234,0.00041851,-0.01129978,
1329,-0.00955189,0.02508601,-0.0017479,
1330,-0.0195469,-0.06272734,-0.00428358,
1331,-0.01831599,0.05534186,-0.00253568,
1332,-0.00125553,-0.06920194,-0.00526831,
1333,0.0068685,-0.02176255,-0.00955189,
1334,0.00199408,0.03879838,0.00007385,
1335,0.00777937,-0.03586881,0.00384045,
1336,-0.00878872,0.08446526,-0.01395856,
1337,0.01555874,-0.08540076,0.01061047,
1338,-0.00598224,-0.0536432,-0.00758243,
1339,-0.00238797,0.01528794,0.0010832,
1340,0.02410128,-0.04130945,0.00206793,
1341,-0.00413587,0.02693238,-0.00093549,
1342,0.02013774,-0.03010814,-0.00137862,
1343,0.00416049,0.02742475,-0.00371736,
1344,-0.00278186,0.00866563,0.01740511,
1345,0.00155095,-0.02964039,-0.00718853,
1346,0.00125553,-0.01339234,-0.00411125,
1347,-0.00078778,0.00928109,0.00130477,
1348,0.00684388,-0.00034466,0.00056622,
1349,-0.00497289,-0.02823715,-0.00635151,
1350,-0.00460362,-0.01260455,-0.00349579,
1351,0.0094288,0.00352041,0.01386008,
1352,0.00438205,-0.00563758,0.00568682,
1353,-0.00809941,-0.00041851,-0.00691773,
1354,0.00322499,-0.00238797,0.00871487,
1355,0.00226488,-0.00211717,-0.00465285,
1356,0.00598224,-0.05516953,-0.0005416,
1357,-0.00856716,0.08638549,-0.00292957,
1358,0.01277688,-0.05608041,0.01152135,
1359,-0.01053662,0.01080742,-0.00280648,
1360,0.00452976,0.00044313,-0.00324961,
1361,0.00297881,-0.01518947,-0.00273263,
1362,0.00718853,-0.07432254,-0.00051698,
1363,0.00290496,-0.03227454,0.00177252,
1364,0.00657308,0.04441135,0.00187099,
1365,-0.00706544,0.00384045,0.00401278,
1366,-0.0048498,-0.00068931,0.00056622,
1367,-0.00659769,0.0243967,-0.0068685,
1368,0.00605609,-0.03321004,-0.00312652,
1369,0.00263415,0.03980773,-0.00561296,
1370,0.00096011,-0.03542568,-0.01336772,
1371,-0.00662231,-0.04633157,-0.00856716,
1372,0.00051698,-0.00544064,-0.00605609,
1373,0.01245684,0.03887224,-0.00091088,
1374,0.00526831,-0.01363852,0.00177252,
1375,-0.00236335,-0.00352041,-0.00022156,
1376,-0.00290496,0.05036897,0.00709006,
1377,0.01866064,-0.01976847,-0.0008124,
1378,0.00896105,-0.06676473,-0.00265877,
1379,-0.01154597,0.0272278,-0.00494827,
1380,0.03055127,-0.0366566,-0.00167404,
1381,-0.00280648,0.02786788,0.00396354,
1382,-0.02149174,-0.00017233,0.00728701,
1383,-0.0093057,-0.03047741,-0.00706544,
1384,-0.00851792,-0.02540605,-0.00216641,
1385,-0.00019695,0.05790216,0.00322499,
1386,0.00679464,-0.03466252,-0.00327423,
1387,0.01262917,0.0192761,-0.00610533,
1388,-0.00312652,0.01068433,-0.00654846,
1389,0.00681926,-0.08215115,-0.00965036,
1390,-0.0036435,0.01245684,-0.00438205,
1391,-0.0022895,-0.00103397,-0.00438205,
1392,-0.00096011,0.02380586,0.00066469,
1393,0.00278186,0.00416049,-0.01376161,
1394,-0.00999502,0.07259926,-0.01154597,
1395,-0.00814865,-0.11575508,0.00699159,
1396,0.00755781,0.00728701,-0.00044313,
1397,-0.00475133,-0.0587638,0.00992116,
1398,0.04414055,-0.01853755,0.01592802,
1399,-0.00105859,-0.02932035,-0.01309692,
1400,-0.01659271,-0.01075818,-0.0039143,
1401,0.00896105,0.0337024,-0.00182175,
1402,-0.00302805,-0.03510564,-0.00987192,
1403,-0.01371237,0.0022895,-0.0102412,
1404,0.00672079,-0.0575575,-0.00105859,
1405,0.00216641,0.04433749,0.00113244,
1406,0.0005416,-0.01841446,0.00489903,
1407,-0.0017479,0.02259957,-0.00059084,
1408,-0.00155095,-0.01703584,-0.00891181,
1409,-0.00039389,0.00979807,0.00305266,
1410,0.00531755,-0.04790714,-0.01166906,
1411,-0.00241259,0.09290933,0.00169866,
1412,0.0008124,-0.02427361,-0.00445591,
1413,-0.00420972,-0.06371207,-0.01504176,
1414,-0.00322499,-0.04254036,-0.01198909,
1415,0.00290496,-0.0303297,-0.01669118,
1416,0.01454939,0.03739514,-0.00585915,
1417,0.00273263,-0.01740511,-0.00142786,
1418,0.01031505,-0.0541848,0.00329885,
1419,-0.01097975,0.05369243,-0.00192022,
1420,0.00260954,0.03906919,-0.00236335,
1421,0.00834559,0.00285572,0.00371736,
1422,-0.00260954,-0.02828639,0.00088626,
1423,0.00376659,0.02828639,-0.00408663,
1424,-0.00630228,-0.06516455,-0.01161982,
1425,0.00507136,-0.00241259,-0.0115952,
1426,-0.00460362,0.01654347,-0.00790246,
1427,0.00280648,0.02887722,-0.01134902,
1428,0.00851792,-0.03109287,0.00022156,
1429,0.00032004,-0.00588377,-0.02218106,
1430,-0.00507136,-0.00241259,0.00009847,
1431,0.00265877,-0.04436211,-0.01309692,
1432,0.00022156,0.0392169,-0.00408663,
1433,0.00374198,-0.01063509,-0.00563758,
1434,-0.00851792,0.00056622,-0.0036435,
1435,0.00780399,0.03621347,-0.00881334,
1436,0.01004425,0.00487442,0.00145248,
1437,-0.00019695,-0.02816329,-0.00034466,
1438,0.02287037,0.00349579,-0.00263415,
1439,-0.00940418,-0.03830602,0.00164942,
1440,-0.00635151,-0.04822718,-0.00440667,
1441,-0.00285572,0.02003927,-0.00819788,
1442,-0.00507136,-0.01196448,-0.00915799,
1443,-0.00475133,0.0115952,-0.00770552,
1444,0.02001465,-0.02159022,-0.00041851,
1445,0.01272764,-0.00324961,0.00273263,
1446,-0.01097975,-0.00994578,-0.0062038,
1447,0.00113244,-0.04586383,-0.00605609,
1448,0.00918261,0.04522375,-0.00526831,
1449,-0.00731162,0.01322001,0.00605609,
1450,-0.00967498,-0.01580493,-0.00832097,
1451,0.01523871,0.00251106,-0.00251106,
1452,0.01006887,0.02996043,0.0017479,
1453,-0.00773013,0.05829605,-0.0095765,
1454,0.00071393,-0.03466252,0.00206793,
1455,0.0200885,-0.10108259,-0.00366812,
1456,-0.00989654,-0.04187567,-0.00460362,
1457,0.02488907,0.02801558,0.00595762,
1458,0.00327423,-0.04756249,-0.00438205,
1459,0.00384045,0.00312652,0.00130477,
1460,0.00524369,-0.01580493,-0.010512,
1461,0.00150171,0.03426862,-0.00251106,
1462,-0.00743472,-0.03453942,-0.00905952,
1463,0.01142287,0.04450982,-0.00659769,
1464,-0.00248644,0.04005392,-0.00088626,
1465,-0.00401278,-0.06873419,-0.00206793,
1466,-0.00189561,0.03284076,-0.01019196,
1467,0.00694235,-0.02661234,-0.0093057,
1468,0.01949767,-0.03047741,-0.01654347,
1469,0.00034466,-0.04635619,-0.00088626,
1470,-0.01115207,-0.00851792,-0.01974385,
1471,0.00472671,-0.01102898,-0.00482518,
1472,0.00743472,-0.02456903,-0.00866563,
1473,0.00100935,0.0338255,-0.01122593,
1474,-0.00657308,-0.0179221,0.00322499,
1475,0.00913338,0.04522375,-0.00324961,
1476,-0.00150171,-0.03313618,-0.00901028,
1477,0.00238797,-0.01605111,-0.0095765,
1478,0.01853755,-0.09780836,-0.00723777,
1479,-0.01240761,-0.01728202,-0.00411125,
1480,-0.0087641,0.06341665,-0.01041353,
1481,0.011866,0.05159988,-0.0040374,
1482,0.00226488,-0.05142755,-0.01516485,
1483,0.01019196,-0.10740949,-0.02508601,
1484,0.00637613,0.00379121,-0.00583453,
1485,-0.00056622,-0.02378124,-0.00967498,
1486,-0.0048498,-0.06139795,-0.00915799,
1487,-0.00531755,-0.00425896,-0.00278186,
1488,-0.01272764,0.04113712,-0.0096996,
1489,0.00347118,-0.00155095,-0.00920723,
1490,0.00588377,0.05278156,-0.00704082,
1491,0.0094288,-0.05125523,-0.00610533,
1492,-0.0031019,-0.00465285,-0.01285073,
1493,-0.00324961,-0.01430321,-0.00120629,
1494,0.00177252,-0.00004924,-0.00155095,
1495,0.00194484,-0.00342194,0.00288034,
1496,0.00327423,-0.00014771,0.00076317,
1497,0.00083702,-0.06014242,-0.00192022,
1498,-0.00514522,0.05497258,-0.00118168,
1499,0.00583453,-0.04842413,-0.00982269,
1500,0.00194484,-0.00445591,-0.00445591,
1501,-0.00324961,-0.04832565,-0.00204332,
1502,0.01149673,-0.03419477,0.01063509,
1503,-0.00544064,0.15088534,-0.01356466,
1504,-0.00167404,-0.07067904,0.00312652,
1505,0.00839483,-0.03990621,-0.00765628,
1506,-0.01486943,0.02001465,0.0031019,
1507,0.01676504,-0.02772017,-0.00288034,
1508,0.01474634,-0.01117669,0.00071393,
1509,-0.00659769,0.04522375,0.00009847,
1510,-0.00132939,-0.08018169,0.00128015,
1511,-0.0025603,-0.00649922,0.0022895,
1512,0.00041851,-0.02402743,-0.00617918,
1513,0.00785323,0.0053914,0.00093549,
1514,0.00425896,0.00576067,-0.00145248,
1515,0.00179713,-0.04524837,-0.00029542,
1516,0.00014771,-0.00066469,0.00482518,
1517,-0.0064746,-0.01322001,-0.00487442,
1518,0.00076317,-0.01171829,-0.02429823,
1519,0.02836024,-0.01425398,0.00856716,
1520,-0.00206793,-0.00657308,-0.00241259,
1521,-0.01486943,0.03929075,-0.00940418,
1522,-0.00002462,-0.00608071,-0.0040374,
1523,-0.01238299,-0.04598692,0.00091088,
1524,-0.00499751,0.0221072,-0.00817326,
1525,-0.00192022,0.02417514,-0.00773013,
1526,0.01174291,-0.0039143,0.00851792,
1527,0.00507136,0.0033727,0.00288034,
1528,0.0153618,-0.04645466,-0.01115207,
1529,0.00376659,-0.01523871,-0.0079517,
1530,-0.01976847,0.02845871,-0.00103397,
1531,-0.0048498,-0.06467218,-0.00231412,
1532,-0.00881334,0.02247648,-0.00669617,
1533,-0.00034466,0.01639576,-0.0036435,
1534,-0.00472671,-0.02616921,-0.00322499,
1535,0.00051698,0.0107828,0.00192022,
1536,0.01102898,0.05159988,-0.00032004,
1537,0.015091,-0.05327392,0.00162481,
1538,0.0010832,-0.01112746,0.0031019,
1539,-0.00472671,0.00950265,-0.00928109,
1540,0.01166906,-0.01880835,-0.00091088,
1541,-0.00438205,-0.0167158,-0.00563758,
1542,-0.00071393,0.00913338,-0.00669617,
1543,-0.00317576,-0.03781365,-0.00022156,
1544,0.00004924,-0.01925148,0.00088626,
1545,-0.01127517,0.04217109,0.00253568,
1546,-0.0010832,-0.08810877,-0.01959614,
1547,0.00039389,0.01976847,0.00770552,
1548,0.01479558,0.02611998,-0.00248644,
1549,-0.01073356,-0.04913806,-0.00278186,
1550,-0.00644999,0.00238797,-0.00519445,
1551,0.00199408,-0.00548987,-0.00386507,
1552,0.02710471,0.00241259,-0.00448052,
1553,-0.01878374,-0.0040374,-0.00396354,
1554,-0.01861141,0.0130723,0.00076317,
1555,0.00704082,0.01558336,0.0002708,
1556,0.01358928,-0.09042288,-0.00846868,
1557,-0.00251106,-0.0087641,-0.01787286,
1558,0.015091,-0.0331608,0.00374198,
1559,-0.00755781,-0.01632191,-0.00423434,
1560,0.01701122,-0.00585915,-0.00908414,
1561,0.00940418,-0.01100436,-0.00561296,
1562,-0.00219103,0.00642537,-0.0051206,
1563,-0.00059084,-0.02134404,-0.00802555,
1564,-0.0121368,0.01223528,-0.00354503,
1565,0.00322499,-0.01934996,-0.0144263,
1566,0.0096996,0.01910377,-0.01097975,
1567,0.01681427,-0.01745435,0.00489903,
1568,0.0067454,-0.00869025,0.00334808,
1569,-0.01779901,0.01991618,0.00411125,
1570,-0.00128015,-0.01395856,-0.00856716,
1571,0.01762668,-0.01277688,-0.00216641,
1572,0.00275725,0.00748395,-0.00265877,
1573,-0.00152633,-0.02390433,-0.00580991,
1574,-0.01437707,0.00878872,-0.00807479,
1575,0.01075818,0.03197913,0.0125307,
1576,0.0192761,-0.09721753,0.00194484,
1577,0.02323964,-0.04822718,-0.00743472,
1578,-0.00268339,0.00386507,-0.00489903,
1579,0.00649922,0.0040374,-0.01048738,
1580,-0.00704082,-0.03887224,-0.00982269,
1581,0.00785323,-0.06381054,-0.00366812,
1582,0.00187099,0.01358928,-0.01484481,
1583,0.01272764,0.00155095,-0.0133431,
1584,-0.0192761,-0.00760704,-0.00044313,
1585,0.00300343,-0.00807479,-0.00359427,
1586,-0.00401278,0.06878343,-0.0094288,
1587,0.0138847,-0.02661234,-0.00928109,
1588,0.01043814,-0.0575575,-0.01457401,
1589,-0.00169866,0.00064007,-0.00841945,
1590,0.00167404,0.05078748,-0.00893643,
1591,0.0252091,-0.00305266,-0.00253568,
1592,-0.00920723,-0.01666656,-0.00681926,
1593,-0.01486943,-0.02767093,-0.00723777,
1594,-0.01097975,-0.00809941,0.00292957,
1595,-0.00531755,-0.02341197,-0.00679464,
1596,0.00888719,0.05854223,0.00630228,
1597,-0.00275725,-0.04327891,-0.00157557,
1598,0.01632191,-0.05918231,-0.01115207,
1599,0.0090349,0.06366283,0.00125553,
1600,-0.01056124,-0.00649922,0.00066469,
1601,-0.00179713,-0.00736086,-0.00278186,
1602,-0.0002708,0.00679464,-0.00630228,
1603,0.00416049,-0.07417483,0.00514522,
1604,-0.00339732,0.03636118,-0.00497289,
1605,0.02112247,0.06735557,0.00329885,
1606,0.01898068,-0.05706514,-0.01026582,
1607,0.00940418,-0.00145248,-0.01080742,
1608,-0.00371736,0.01056124,-0.01198909,
1609,-0.02058087,-0.0138847,-0.01400779,
1610,0.01282612,-0.01122593,-0.0087641,
1611,-0.00450514,-0.01422936,-0.01043814,
1612,-0.00376659,0.07744906,-0.0094288,
1613,0.01004425,-0.06307199,-0.01447554,
1614,-0.00420972,-0.03025585,-0.00869025,
1615,0.00125553,0.02838486,0.00019695,
1616,0.00915799,-0.03924151,-0.00699159,
1617,0.00699159,-0.08101871,-0.00475133,
1618,-0.00733624,0.01154597,-0.00068931,
1619,0.00758243,0.03121596,-0.00428358,
1620,0.00064007,0.05411094,-0.00780399,
1621,0.00731162,-0.06838954,-0.01221066,
1622,0.00846868,-0.02134404,-0.00571144,
1623,0.0005416,-0.00288034,-0.00573606,
1624,0.00561296,0.00662231,-0.0025603,
1625,-0.010512,-0.01201371,-0.01134902,
1626,0.01056124,-0.03759209,-0.00297881,
1627,-0.00851792,-0.01036429,-0.00612995,
1628,0.00044313,-0.016445,-0.00999502,
1629,0.00044313,-0.06233345,-0.00408663,
1630,0.00669617,0.04047243,-0.00667155,
1631,0.00238797,-0.00297881,-0.00881334,
1632,-0.00472671,-0.02759707,-0.0121368,
1633,0.00475133,-0.02988657,-0.00113244,
1634,0.00521907,0.04108788,-0.00896105,
1635,0.00509598,-0.01659271,0.0008124,
1636,0.00965036,-0.01878374,0.010512,
1637,0.00236335,0.0462331,-0.00130477,
1638,-0.0020187,-0.01634653,0.00536678,
1639,0.00029542,0.04549455,0.01048738,
1640,0.01282612,-0.07085136,-0.00918261,
1641,-0.00014771,-0.02698162,0.00142786,
1642,0.00371736,-0.05965005,-0.00152633,
1643,-0.00782861,0.07358399,0.0002708,
1644,0.03291462,-0.03586881,-0.00548987,
1645,0.00728701,0.02801558,-0.00292957,
1646,-0.01853755,-0.03035432,0.00642537,
1647,0.00155095,-0.02250109,-0.00192022,
1648,0.00014771,-0.0033727,-0.00278186,
1649,0.00610533,-0.10184576,0.0033727,
1650,-0.00349579,-0.00871487,-0.0017479,
1651,-0.0068685,-0.02725242,-0.00388969,
1652,0.0005416,0.06024089,-0.01326924,
1653,0.00792708,-0.00561296,0.01260455,
1654,-0.00869025,-0.04241727,-0.00152633,
1655,-0.00125553,0.03970926,-0.00164942,
1656,0.0064746,-0.0436728,-0.00470209,
1657,-0.00224026,-0.01856217,-0.00241259,
1658,0.00807479,-0.03732129,-0.00396354,
1659,-0.01085665,-0.02136865,0.00413587,
1660,0.02579994,0.0136139,-0.00440667,
1661,-0.01093051,-0.00187099,-0.00561296,
1662,-0.01312153,-0.0337024,-0.00278186,
1663,0.00982269,0.00157557,-0.00869025,
1664,0.00950265,-0.02267342,-0.00226488,
1665,0.01285073,-0.06553382,-0.0102412,
1666,-0.00497289,0.0672571,-0.01400779,
1667,0.0010832,-0.06398287,-0.00920723,
1668,0.00120629,0.1027074,-0.00928109,
1669,0.01848832,-0.06617389,-0.01558336,
1670,0.00386507,-0.00827174,-0.004579,
1671,0.0020187,-0.03980773,-0.00834559,
1672,0.00302805,0.00007385,-0.00622842,
1673,-0.00189561,-0.01506638,-0.00342194,
1674,-0.00214179,0.03776442,-0.00482518,
1675,-0.01383546,-0.00268339,-0.02410128,
1676,-0.00347118,0.02562761,-0.01014272,
1677,-0.01553412,-0.02816329,-0.02144251,
1678,0.01386008,0.02616921,-0.00425896,
1679,0.01715893,-0.01573107,-0.00472671,
1680,-0.01287535,-0.021024,0.00044313,
1681,-0.0096996,-0.02885261,-0.01730664,
1682,0.00132939,-0.03165909,-0.01056124,
1683,-0.00576067,-0.04433749,-0.01102898,
1684,0.00002462,0.02907417,-0.00066469,
1685,-0.00814865,0.02567685,0.00051698,
1686,0.00103397,-0.04170334,-0.00551449,
1687,-0.00699159,0.02122094,-0.0074101,
1688,0.00327423,-0.05238767,-0.0033727,
1689,-0.00731162,-0.00182175,-0.00514522,
1690,-0.00243721,-0.0195469,-0.0039143,
1691,0.00130477,-0.04081708,-0.00130477,
1692,0.00280648,-0.01289997,-0.00502213,
1693,0.00352041,0.00009847,-0.00807479,
1694,0.00568682,-0.01004425,0.00285572,
1695,0.01890683,0.02717856,-0.00100935,
1696,0.00777937,-0.04350047,0.00617918,
1697,-0.00398816,-0.01065971,0.00120629,
1698,0.00770552,0.03239764,-0.01659271,
1699,-0.00386507,-0.01029043,-0.01413088,
1700,0.01418012,-0.02471674,-0.01467249,
1701,-0.00905952,0.0153618,0.00248644,
1702,-0.00819788,0.02826177,0.0017479,
1703,0.00642537,-0.07727673,-0.00580991,
1704,0.00224026,0.02639078,-0.00204332,
1705,-0.00327423,-0.02550452,-0.00329885,
1706,0.02107323,0.02946806,-0.00004924,
1707,-0.01585416,-0.00908414,-0.0110536,
1708,-0.0036435,0.03143752,0.00662231,
1709,-0.00078778,-0.05475102,0.00711468,
1710,-0.01011811,0.02085167,0.00145248,
1711,0.00691773,-0.00128015,0.00152633,
1712,-0.00558835,0.00396354,0.00167404,
1713,-0.0048498,-0.02114709,0.00009847,
1714,-0.00260954,-0.00317576,0.00438205,
1715,0.00352041,-0.00630228,0.00199408,
1716,-0.0093057,-0.03842911,-0.00514522,
1717,0.00536678,0.04694703,0.00157557,
1718,0.01708508,-0.06420443,-0.00773013,
1719,0.00487442,0.05344625,-0.00009847,
1720,-0.00354503,0.01585416,-0.00546525,
1721,-0.0122599,0.01004425,-0.01208757,
1722,-0.01541103,-0.06964507,-0.0017479,
1723,0.00425896,0.00162481,-0.00827174,
1724,-0.01112746,0.00433281,-0.01651886,
1725,0.00275725,-0.01715893,0.00327423,
1726,-0.00088626,0.00905952,-0.00241259,
1727,0.01011811,-0.01339234,0.00192022,
1728,0.01011811,-0.02026083,-0.00888719,
1729,0.00817326,-0.00573606,-0.00324961,
1730,0.00654846,-0.02604612,0.00007385,
1731,-0.0033727,-0.06802026,-0.00093549,
1732,0.00679464,0.04126021,0.00078778,
1733,0.00536678,-0.01125055,0.00302805,
1734,-0.01693737,0.01664195,-0.00078778,
1735,0.03050203,0.00366812,-0.00017233,
1736,0.00177252,-0.00206793,0.01248146,
1737,-0.01036429,-0.01161982,-0.00041851,
1738,0.00366812,-0.00704082,-0.00142786,
1739,-0.00105859,0.01605111,0.00450514,
1740,0.00561296,-0.04561764,-0.00113244,
1741,0.0053914,-0.00448052,0.00637613,
1742,-0.01115207,-0.02198411,-0.01240761,
1743,-0.00327423,-0.01706046,-0.004579,
1744,-0.00871487,-0.02459365,-0.00317576,
1745,-0.00071393,0.03325928,0.00002462,
1746,0.00440667,0.0074101,0.00548987,
1747,-0.00251106,-0.02422437,-0.01915301,
1748,0.00265877,0.00164942,0.0031019,
1749,-0.0053914,0.00905952,-0.00790246,
1750,-0.01688813,-0.02427361,-0.00103397,
1751,-0.00145248,-0.00472671,-0.00324961,
1752,0.01294921,0.02333811,0.00132939,
1753,0.0148202,-0.04625772,-0.00251106,
1754,0.00883796,-0.03537645,0.00452976,
1755,-0.00465285,-0.05659739,-0.00155095,
1756,0.00327423,0.00113244,0.00398816,
1757,0.00809941,-0.01073356,-0.00130477,
1758,0.00507136,-0.01147211,-0.0040374,
1759,0.00347118,-0.00371736,0.00352041,
1760,-0.00051698,0.00248644,-0.00329885,
1761,0.00571144,0.02065472,-0.00177252,
1762,-0.01952228,-0.01164444,-0.00130477,
1763,0.03008352,0.04399284,-0.00157557,
1764,-0.02402743,0.01036429,-0.01233375,
1765,0.00494827,-0.03623809,-0.02045778,
1766,0.00083702,-0.02900032,-0.0079517,
1767,0.01459863,-0.00413587,0.00068931,
1768,0.01560798,0.03119134,0.00556373,
1769,-0.00489903,-0.07511032,0.00056622,
1770,0.00051698,-0.03399782,-0.00388969,
1771,0.00137862,0.00433281,0.00411125,
1772,0.00632689,-0.02737551,0.00361888,
1773,0.01093051,-0.01386008,-0.00672079,
1774,-0.00494827,0.03222531,0.00051698,
1775,-0.02333811,-0.00881334,-0.00452976,
1776,-0.00588377,0.0394877,-0.00945341,
1777,0.00777937,-0.00864101,0.0087641,
1778,0.00827174,-0.02255033,0.00327423,
1779,0.00155095,0.04076785,-0.00460362,
1780,0.00339732,0.07405174,0.00679464,
1781,-0.00059084,-0.03675507,0.00379121,
1782,0.0076809,-0.00814865,0.00177252,
1783,0.0094288,-0.0258738,0.00334808,
1784,-0.00937956,-0.05507106,0.00536678,
1785,-0.0008124,0.04510066,0.00625304,
1786,-0.00684388,-0.01339234,0.00194484,
1787,0.00083702,-0.02936959,-0.00004924,
1788,0.00576067,0.04502681,-0.00088626,
1789,0.00039389,-0.01061047,0.00502213,
1790,0.00032004,0.04066937,-0.00315114,
1791,-0.00347118,-0.0292465,-0.00214179,
1792,0.01851293,-0.03020661,-0.0053914,
1793,0.00514522,0.09857153,0.00167404,
1794,-0.01383546,-0.0181929,-0.00285572,
1795,0.00691773,-0.05241228,-0.01570645,
1796,-0.0051206,0.05684357,-0.00605609,
1797,0.00977345,-0.01824213,-0.00571144,
1798,-0.0067454,-0.0221072,-0.00411125,
1799,0.00051698,-0.02865566,0.00238797,
1800,0.0022895,-0.01548489,-0.00115706,
1801,0.00204332,0.0094288,-0.00187099,
1802,0.00558835,0.03018199,-0.00068931,
1803,0.00583453,0.05398785,-0.0008124,
1804,0.00438205,-0.0839729,0.00150171,
1805,0.00846868,-0.01789748,-0.00142786,
1806,-0.00659769,-0.02565223,-0.00696697,
1807,0.00982269,-0.02341197,-0.00632689,
1808,0.00967498,0.0010832,-0.00339732,
1809,0.0033727,0.04977813,-0.02863104,
1810,-0.02087629,0.02195949,-0.00844406,
1811,0.02481521,-0.0413833,-0.01097975,
1812,0.00374198,-0.04010315,-0.00871487,
1813,-0.01632191,0.03527797,-0.00580991,
1814,-0.00128015,0.01767591,-0.00765628,
1815,-0.00869025,-0.05056591,-0.01041353,
1816,-0.01408165,0.02705547,-0.01326924,
1817,0.02021159,-0.01110284,-0.01450016,
1818,0.00952727,0.01853755,-0.01432783,
1819,-0.00918261,-0.00450514,-0.01228451,
1820,-0.00667155,-0.0036435,-0.01275226,
1821,0.0087641,-0.01856217,-0.01265379,
1822,-0.01029043,0.00733624,-0.00721315,
1823,0.00999502,0.01282612,-0.00051698,
1824,0.0264154,-0.07786757,-0.0230427,
1825,-0.00489903,-0.00142786,-0.004579,
1826,0.005933,-0.01346619,-0.00142786,
1827,0.00275725,0.01610034,-0.01043814,
1828,0.00497289,0.01161982,-0.00760704,
1829,0.00334808,-0.00379121,-0.00635151,
1830,0.0121368,-0.01270302,-0.00206793,
1831,-0.01999003,-0.01201371,-0.0079517,
1832,0.00856716,-0.01999003,-0.00137862,
1833,0.00317576,0.04377127,-0.00152633,
1834,0.00359427,-0.0516245,-0.00164942,
1835,-0.00546525,0.04386975,-0.00561296,
1836,0.00974883,-0.07725211,-0.00691773,
1837,-0.00155095,0.01351543,-0.00856716,
1838,0.00411125,0.01373699,-0.00398816,
1839,0.00482518,0.07387941,-0.00428358,
1840,0.00585915,-0.0266862,-0.00093549,
1841,0.00869025,-0.0261446,-0.00115706,
1842,0.00871487,-0.02491368,0.00268339,
1843,0.005933,0.01976847,0.00278186,
1844,-0.0149679,-0.04020163,-0.01154597,
1845,0.01533718,-0.00214179,0.00204332,
1846,-0.00096011,-0.03781365,-0.00241259,
1847,-0.00428358,-0.02026083,-0.00571144,
1848,-0.00169866,0.01312153,-0.0010832,
1849,0.00334808,0.00302805,-0.00162481,
1850,0.00519445,0.02705547,-0.00115706,
1851,0.01349081,-0.02740013,-0.00425896,
1852,0.0008124,-0.03498255,0.00694235,
1853,0.00169866,-0.01174291,0.00502213,
1854,0.00940418,-0.0362627,0.00187099,
1855,-0.01939919,-0.03284076,-0.01450016,
1856,-0.00883796,0.00204332,-0.01216142,
1857,0.00216641,-0.05295389,-0.0096996,
1858,-0.00519445,0.02112247,-0.00571144,
1859,0.00521907,0.00352041,0.00007385,
1860,0.00920723,0.00376659,-0.01038891,
1861,0.00531755,0.00056622,-0.0031019,
1862,-0.00561296,-0.00334808,-0.00534216,
1863,0.0017479,-0.11555813,-0.00204332,
1864,0.00088626,0.05401247,-0.00758243,
1865,-0.00711468,-0.01272764,-0.00477594,
1866,0.00841945,0.03685354,-0.00224026,
1867,-0.00349579,-0.01061047,-0.00891181,
1868,0.01080742,-0.0181929,-0.00396354,
1869,-0.01410627,-0.02050701,-0.00324961,
1870,-0.00076317,-0.02294422,-0.0025603,
1871,0.01642038,-0.00805017,-0.01322001,
1872,-0.00029542,0.00448052,0.00128015,
1873,-0.00612995,-0.0062038,-0.00477594,
1874,-0.01462325,0.0079517,-0.00465285,
1875,-0.00219103,0.00238797,-0.00711468,
1876,0.02097476,0.06329356,-0.01265379,
1877,-0.00667155,-0.06998973,-0.00999502,
1878,-0.00945341,-0.04155563,-0.00526831,
1879,-0.0051206,-0.04175258,0.00056622,
1880,0.0002708,0.01893145,-0.01322001,
1881,0.00814865,-0.02518448,-0.00765628,
1882,0.01238299,-0.02476597,-0.00561296,
1883,0.00162481,0.00965036,-0.00765628,
1884,0.00797632,-0.10337209,-0.00354503,
1885,-0.00066469,0.04889187,-0.00531755,
1886,0.00354503,0.01282612,-0.00696697,
1887,-0.00605609,0.01351543,0.00408663,
1888,-0.01041353,0.00251106,-0.01001963,
1889,0.00644999,0.00797632,-0.00662231,
1890,0.01632191,-0.0190053,-0.00718853,
1891,-0.00039389,-0.00718853,-0.00888719,
1892,0.00465285,0.02127018,-0.01346619,
1893,0.01368775,-0.01634653,-0.00718853,
1894,0.004579,-0.00100935,-0.00856716,
1895,-0.00265877,-0.01201371,-0.00841945,
1896,-0.00883796,-0.00273263,-0.00952727,
1897,-0.00009847,0.08559771,-0.016445,
1898,0.03045279,-0.06221035,-0.01560798,
1899,0.00731162,-0.07129449,-0.00580991,
1900,-0.00834559,-0.00083702,-0.00844406,
1901,-0.00933032,0.05031973,-0.00662231,
1902,-0.00413587,-0.0258738,-0.00883796,
1903,0.00317576,-0.02284575,-0.00733624,
1904,0.00305266,-0.03513026,-0.00046775,
1905,-0.00416049,-0.00487442,0.00349579,
1906,0.02680929,-0.00253568,0.00105859,
1907,-0.00743472,-0.00558835,-0.00440667,
1908,-0.00125553,-0.07129449,-0.00583453,
1909,0.0068685,0.09519883,0.00568682,
1910,0.00558835,0.00524369,0.0074101,
1911,0.00440667,0.04261422,0.0107828,
1912,-0.00125553,-0.04207261,-0.01383546,
1913,-0.01573107,0.03564725,-0.0064746,
1914,0.02134404,-0.01191524,-0.00029542,
1915,0.01196448,-0.01646962,0.01004425,
1916,-0.00260954,-0.06110253,-0.00206793,
1917,0.01787286,-0.07129449,-0.00440667,
1918,-0.016445,0.05448022,-0.00137862,
1919,0.00743472,0.00625304,0.00169866,
1920,0.00608071,-0.01029043,0.00300343,
1921,0.00563758,0.02767093,0.00622842,
1922,-0.00032004,-0.01595264,0.00556373,
1923,-0.00275725,-0.01782362,-0.0122599,
1924,-0.00248644,-0.00672079,-0.00145248,
1925,0.04054628,-0.01728202,0.00352041,
1926,0.00413587,0.00352041,0.00083702,
1927,-0.02242724,0.00004924,0.00120629,
1928,-0.00531755,0.01595264,-0.00280648,
1929,0.0036435,-0.0277694,0.00322499,
1930,0.0053914,-0.04226956,-0.00066469,
1931,0.01730664,0.02557838,0.00585915,
1932,0.00420972,0.0040374,0.005933,
1933,-0.00526831,0.10871426,0.00925647,
1934,-0.005933,-0.13288939,0.00017233,
1935,-0.00718853,-0.04140792,-0.00662231,
1936,-0.01233375,0.03387473,-0.00251106,
1937,0.0161742,-0.05962544,0.00519445,
1938,0.01890683,0.05204301,0.00526831,
1939,0.00371736,-0.03229916,-0.00519445,
1940,-0.00580991,-0.01691275,-0.00662231,
1941,0.00300343,-0.0020187,-0.00029542,
1942,0.00915799,-0.01184139,0.00544064,
1943,-0.00096011,0.01472172,0.00558835,
1944,0.02296884,-0.02533219,-0.00285572,
1945,0.0148202,0.00450514,0.00155095,
1946,-0.00797632,-0.00076317,-0.00605609,
1947,0.00955189,-0.01787286,-0.00433281,
1948,-0.00091088,-0.01129978,0.00300343,
1949,0.01546027,0.00352041,0.00292957,
1950,0.00531755,-0.01518947,0.01851293,
1951,-0.00580991,0.09768527,0.01605111,
1952,0.00347118,-0.11191463,-0.00940418,
1953,-0.01425398,-0.01371237,0.01454939,
1954,0.02114709,-0.01922686,0.00113244,
1955,0.00093549,-0.0229196,-0.0159034,
1956,0.00324961,-0.05667124,0.00716391,
1957,-0.005933,-0.02577532,0.00534216,
1958,0.01774977,-0.05573575,0.01814366,
1959,0.01093051,-0.02872951,0.01277688,
1960,-0.00339732,-0.00224026,0.01011811,
1961,0.00748395,0.00568682,0.00723777,
1962,0.00612995,-0.01368775,0.00696697,
1963,-0.01139826,0.00322499,0.0051206,
1964,-0.00521907,-0.00009847,0.0064746,
1965,0.00770552,-0.02410128,0.00546525,
1966,-0.01400779,0.04177719,0.02653849,
1967,0.00777937,0.03547492,-0.02703085,
1968,-0.01880835,0.05012279,-0.01506638,
1969,0.0053914,-0.01031505,-0.01494329,
1970,0.02250109,-0.07257464,0.03131443,
1971,0.00361888,0.05482487,0.01491867,
1972,-0.00041851,-0.02821253,-0.03503179,
1973,0.01122593,-0.02279651,-0.01356466,
1974,0.00977345,-0.0272278,0.00009847,
1975,-0.0076809,-0.02181178,-0.01161982,
1976,0.00150171,0.00002462,-0.00140324,
1977,0.01245684,-0.04510066,-0.00334808,
1978,0.01619882,0.02828639,-0.00162481,
1979,-0.01789748,0.02570147,0.004579,
1980,0.00130477,-0.00068931,0.01100436,
1981,0.01011811,-0.02624307,0.01189062,
1982,0.00440667,-0.00494827,0.01038891,
1983,0.00477594,0.04436211,-0.00748395,
1984,-0.00046775,-0.00544064,0.00514522,
1985,0.00253568,0.00076317,0.01541103,
1986,-0.00765628,-0.00477594,0.0490642,
1987,0.01430321,-0.00007385,0.09753756,
1988,0.01383546,-0.02582456,-0.05113213,
1989,0.00891181,-0.08956125,-0.0351795,
1990,-0.00672079,0.07149144,-0.02479059,
1991,0.01486943,0.06578,-0.00531755,
1992,0.00499751,-0.03419477,-0.01964537,
1993,-0.00096011,-0.0203593,-0.01208757,
1994,0.016445,-0.06895576,-0.00723777,
1995,0.00595762,-0.00398816,-0.00352041,
1996,-0.01580493,-0.06989125,0.00199408,
1997,-0.00891181,0.02616921,0.01026582,
1998,-0.00192022,0.02648925,-0.00699159,
1999,-0.01235837,0.01029043,0.00524369,
2000,-0.01088127,0.02481521,-0.00805017,
2001,0.01814366,-0.04522375,0.02579994,
2002,-0.00773013,0.0264154,-0.01548489,
2003,0.00967498,-0.07141758,-0.00571144,
2004,-0.00999502,0.0392169,0.00945341,
2005,0.0036435,0.00039389,0.00551449,
2006,0.00905952,-0.01738049,0.00113244,
2007,0.02016236,0.02786788,0.00662231,
2008,0.01467249,-0.08778873,-0.00096011,
2009,-0.00216641,-0.00251106,-0.00091088,
2010,-0.00199408,0.07245155,0.03160985,
2011,0.00901028,-0.06742943,0.03727205,
2012,-0.02119633,0.07109755,-0.06245654,
2013,-0.00164942,-0.10024557,-0.02626769,
2014,-0.01228451,0.01420474,0.00654846,
2015,-0.00034466,-0.01115207,0.00440667,
2016,0.01011811,0.05475102,0.00817326,
2017,-0.00905952,-0.2039377,-0.02715395,
2018,-0.00076317,0.0025603,-0.00420972,
2019,0.01984232,-0.02407666,0.00182175,
2020,0.01275226,0.00765628,-0.00302805,
2021,0.00477594,0.01373699,-0.00192022,
2022,0.00297881,0.01861141,0.00556373,
2023,0.01056124,0.00206793,0.00913338,
2024,0.00145248,-0.02168869,0.00684388,
2025,-0.00699159,0.01191524,-0.00093549,
2026,0.00883796,-0.01880835,0.02545529,
2027,0.01447554,0.02161484,-0.01324463,
2028,0.00925647,-0.01056124,-0.01395856,
2029,-0.00933032,-0.00659769,-0.00278186,
2030,-0.03296386,0.08980743,0.10772952,
2031,0.011866,-0.071713,0.28842758,
2032,0.03417015,-0.03687816,-0.23852636,
2033,0.01262917,-0.01937457,-0.07021129,
2034,0.00992116,0.0692758,-0.05765598,
2035,-0.00093549,-0.03431786,-0.04436211,
2036,0.00224026,0.01166906,-0.03256996,
2037,0.01322001,-0.0318068,-0.01893145,
2038,0.00817326,0.00014771,-0.01014272,
2039,0.0040374,-0.03547492,-0.01511561,
2040,0.00401278,-0.05344625,-0.00765628,
2041,0.02589841,0.08052634,0.07215613,
2042,-0.11486882,-0.07343628,-0.08527767,
2043,0.00851792,0.03884762,0.00608071,
2044,-0.0130723,-0.03227454,0.0187345,
2045,0.01939919,0.13156,0.01142287,
2046,0.01642038,-0.05977315,-0.05644968,
2047,0.01085665,0.01134902,-0.01824213,
2048,0.00600686,-0.06125024,0.00386507,
2049,0.00731162,0.01578031,-0.00167404,
2050,0.01848832,-0.03156061,0.00096011,
2051,0.00598224,-0.01949767,0.00425896,
2052,-0.00667155,0.03813369,0.00211717,
2053,0.01312153,0.02016236,0.0025603,
2054,0.00743472,-0.01223528,-0.00302805,
2055,-0.0093057,0.01856217,-0.0005416,
2056,0.01445092,-0.04711936,0.00051698,
2057,0.0235843,0.01346619,0.0076809,
2058,-0.00691773,0.01102898,0.02159022,
2059,0.01595264,-0.03321004,0.01459863,
2060,-0.00576067,-0.01713431,-0.01816828,
2061,-0.00605609,0.19256406,-0.00162481,
2062,0.00834559,-0.12166346,0.01260455,
2063,-0.00777937,-0.04965504,-0.01457401,
2064,0.00450514,-0.04162948,-0.01038891,
2065,0.01129978,-0.07550422,-0.00465285,
2066,0.0020187,0.06427829,0.00962574,
2067,0.00192022,0.01720817,-0.0125307,
2068,0.0204824,-0.05320007,-0.01090589,
2069,-0.00435743,-0.08594236,-0.00231412,
2070,-0.0096996,0.07245155,0.00721315,
2071,-0.01179215,-0.00324961,0.01578031,
2072,0.01861141,-0.01592802,-0.00711468,
2073,-0.02294422,-0.03227454,0.01322001,
2074,-0.03279153,0.10371675,0.00167404,
2075,0.02619383,0.10194423,0.00878872,
2076,0.00974883,-0.09620818,-0.02223029,
2077,0.00580991,0.00519445,0.00962574,
2078,0.00238797,0.00130477,0.00216641,
2079,0.0087641,0.01176753,-0.0195469,
2080,0.00827174,-0.02235338,-0.0082225,
2081,0.01216142,-0.0274986,0.00078778,
2082,0.00401278,0.00760704,-0.005933,
2083,0.00556373,-0.02432285,-0.00718853,
2084,0.00642537,-0.00093549,-0.00088626,
2085,-0.00716391,0.03355469,0.00841945,
2086,0.00893643,0.02678467,-0.00324961,
2087,0.0094288,-0.05475102,-0.01139826,
2088,0.00487442,-0.02267342,-0.00544064,
2089,-0.00435743,0.02181178,0.01065971,
2090,-0.02383048,-0.00445591,0.01100436,
2091,-0.01339234,-0.01410627,0.02607074,
2092,0.00204332,-0.00989654,-0.01014272,
2093,-0.00438205,-0.02752322,-0.0359919,
2094,0.01152135,-0.01546027,-0.00856716,
2095,-0.00802555,0.07634124,-0.01592802,
2096,-0.00322499,-0.03192989,-0.0122599,
2097,0.0149679,-0.01349081,-0.00066469,
2098,-0.00413587,-0.03340698,-0.01691275,
2099,-0.00219103,-0.0518953,-0.00164942,
2100,0.00733624,0.05088595,-0.00979807,
2101,-0.00556373,0.01450016,-0.0067454,
2102,0.01339234,-0.08052634,0.0005416,
2103,0.02530758,0.03751823,0.04805485,
2104,-0.00204332,0.01065971,0.01691275,
2105,-0.01479558,0.0017479,-0.06408134,
2106,-0.0133431,-0.07501185,-0.04315582,
2107,-0.01090589,-0.0357211,0.01413088,
2108,-0.00231412,-0.10539079,-0.0031019,
2109,0.00347118,0.06144719,0.01129978,
2110,-0.00155095,-0.06309661,-0.03010814,
2111,0.00802555,-0.01811904,-0.00401278,
2112,-0.00115706,-0.08416985,0.00140324,
2113,0.00937956,0.06033937,0.00324961,
2114,0.00844406,-0.00339732,-0.0010832,
2115,0.00366812,-0.02845871,-0.00022156,
2116,-0.0017479,0.01331848,-0.00696697,
2117,0.00573606,-0.0431312,-0.00617918,
2118,0.01627267,-0.07973856,-0.00352041,
2119,-0.00448052,-0.00561296,-0.0025603,
2120,0.00398816,0.09128452,0.00120629,
2121,-0.00445591,-0.01048738,-0.00782861,
2122,0.00334808,-0.08121565,-0.01789748,
2123,-0.00452976,0.00039389,-0.00950265,
2124,-0.00556373,-0.03042817,0.02678467,
2125,0.01410627,-0.00871487,-0.00128015,
2126,-0.00716391,-0.02715395,-0.02028545,
2127,0.01467249,-0.0122599,-0.00423434,
2128,-0.00465285,0.0087641,-0.01110284,
2129,-0.00610533,-0.05251076,-0.00238797,
2130,-0.00007385,0.02267342,-0.01888221,
2131,0.00893643,0.00834559,-0.00531755,
2132,0.005933,0.10802494,-0.00132939,
2133,-0.00612995,-0.16491775,-0.00452976,
2134,0.00278186,0.0393646,-0.01632191,
2135,0.00450514,-0.01683889,0.00177252,
2136,-0.00297881,-0.03527797,-0.00521907,
2137,-0.00361888,-0.12213121,-0.01344157,
2138,-0.0090349,0.04017701,-0.0221072,
2139,0.00216641,0.02639078,-0.01447554,
2140,-0.02488907,-0.04106326,0.00940418,
2141,0.01499252,-0.02491368,-0.04342662,
2142,-0.00130477,-0.08293893,-0.01152135,
2143,0.01129978,0.09886695,-0.00248644,
2144,0.00120629,-0.05642506,0.00300343,
2145,0.01949767,0.05881303,0.0048498,
2146,-0.00199408,-0.0516245,-0.01147211,
2147,-0.00374198,0.03192989,-0.01400779,
2148,-0.00753319,0.00844406,-0.01019196,
2149,-0.00187099,-0.0958389,-0.00302805,
2150,-0.00342194,-0.03872453,0.06021627,
2151,0.00470209,0.11772454,-0.03525335,
2152,-0.00681926,0.03638579,-0.05713899,
2153,-0.01848832,0.1287289,-0.00071393,
2154,0.02577532,-0.16880744,-0.02973886,
2155,0.01408165,-0.18608946,-0.02501216,
2156,0.00711468,0.11073295,-0.01816828,
2157,-0.00007385,0.02860642,0.00029542,
2158,0.00681926,0.02373201,-0.0090349,
2159,0.01971923,-0.00425896,0.0153618,
2160,0.00243721,0.04347585,0.02257495,
2161,0.00268339,-0.02567685,-0.00721315,
2162,0.01302306,0.02789249,0.00187099,
2163,-0.00241259,0.02946806,-0.01457401,
2164,-0.00192022,-0.04054628,-0.00413587,
2165,0.00494827,-0.04354971,0.00745933,
2166,-0.00745933,-0.02530758,0.02964039,
2167,0.00773013,0.1066217,-0.00573606,
2168,-0.00526831,-0.09655283,-0.0181929,
2169,-0.00563758,0.03227454,0.00263415,
2170,0.01248146,-0.0700882,-0.01031505,
2171,-0.00556373,0.00435743,-0.02442132,
2172,0.00551449,0.00866563,-0.01494329,
2173,0.01115207,-0.01149673,-0.01610034,
2174,-0.00925647,0.04551917,-0.01270302,
2175,0.00312652,-0.0195469,-0.01324463,
2176,0.01043814,0.0274986,-0.00224026,
2177,-0.00022156,0.0207532,-0.00128015,
2178,0.0051206,-0.0252091,-0.00236335,
2179,-0.00630228,-0.04958118,-0.00334808,
2180,-0.00448052,-0.07181148,-0.01127517,
2181,0.00462823,0.06713401,-0.00531755,
2182,-0.00438205,0.05585884,-0.0067454,
2183,-0.00438205,0.04140792,0.00125553,
2184,0.01971923,-0.02850795,-0.00192022,
2185,0.01344157,-0.06949736,0.00189561,
2186,-0.00918261,0.04052166,0.00253568,
2187,-0.00128015,0.02680929,-0.01989156,
2188,0.00758243,-0.05347087,-0.00482518,
2189,-0.0136139,-0.02528296,-0.00814865,
2190,-0.00487442,-0.03764133,0.01073356,
2191,-0.00699159,0.0465039,-0.031536,
2192,-0.00145248,0.00748395,0.01605111,
2193,0.01654347,0.06393363,-0.0074101,
2194,-0.01430321,-0.0087641,-0.02422437,
2195,0.00792708,-0.12392834,0.00718853,
2196,-0.01223528,0.07415021,-0.00091088,
2197,0.00728701,-0.01634653,-0.03577034,
2198,-0.00709006,0.1168629,-0.03426862,
2199,-0.02200873,-0.16452386,0.02653849,
2200,-0.0144263,0.04958118,0.0067454,
2201,0.0121368,-0.05460331,-0.06410596,
2202,0.01297383,0.01491867,-0.01011811,
2203,0.01395856,0.00475133,0.00792708,
2204,0.01285073,-0.0107828,0.00236335,
2205,0.02161484,-0.02267342,0.00354503,
2206,0.00519445,0.03943846,-0.01026582,
2207,0.00856716,-0.04350047,-0.00187099,
2208,-0.00366812,0.02045778,-0.00046775,
2209,-0.01326924,-0.04510066,-0.00339732,
2210,-0.00556373,0.04433749,0.01149673,
2211,0.00315114,-0.12442071,0.00696697,
2212,-0.00029542,0.03894609,-0.00497289,
2213,0.00864101,0.0257507,-0.01947305,
2214,-0.0076809,-0.08754255,0.04889187,
2215,0.00709006,0.04711936,0.04721783,
2216,0.00059084,-0.06189032,-0.07321472,
2217,0.00937956,0.16156967,-0.0218364,
2218,0.02021159,-0.09963012,-0.03232378,
2219,0.00224026,0.01294921,-0.01851293,
2220,-0.00425896,-0.15947712,-0.00955189,
2221,-0.00834559,0.17907325,-0.00598224,
2222,-0.00802555,0.02328888,-0.01166906,
2223,0.01804519,-0.00531755,-0.01048738,
2224,0.02065472,-0.00684388,0.00004924,
2225,-0.01368775,0.00802555,0.01125055,
2226,0.00177252,-0.02434746,0.01149673,
2227,-0.03284076,0.05704052,-0.01629729,
2228,-0.01196448,-0.07392865,-0.00064007,
2229,0.00967498,0.0300589,-0.0121368,
2230,-0.00300343,-0.0051206,0.00497289,
2231,-0.00433281,0.01986694,-0.00637613,
2232,0.01386008,-0.00366812,0.00790246,
2233,0.03874915,0.00531755,0.00706544,
2234,-0.004579,-0.0005416,-0.01041353,
2235,-0.00300343,-0.05199377,-0.00312652,
2236,-0.00105859,-0.01595264,-0.00411125,
2237,0.00167404,-0.01484481,0.03291462,
2238,-0.03707511,0.13165848,0.03407168,
2239,0.0076809,-0.06169337,-0.03993082,
2240,0.00064007,-0.01959614,-0.04022624,
2241,0.00630228,0.06307199,-0.01297383,
2242,0.01176753,-0.05327392,-0.01856217,
2243,-0.00285572,-0.12811345,-0.03072359,
2244,0.01418012,0.11112685,0.01309692,
2245,0.00260954,0.10539079,0.01110284,
2246,0.0076809,-0.03756747,0.00450514,
2247,-0.01201371,0.00672079,-0.01006887,
2248,-0.00896105,-0.00896105,0.00164942,
2249,0.00322499,0.01499252,0.01326924,
2250,0.00974883,0.01811904,0.00041851,
2251,0.00132939,-0.05603117,-0.01036429,
2252,-0.01228451,-0.03749362,-0.00386507,
2253,-0.00032004,0.01942381,0.00551449,
2254,0.01878374,-0.02725242,0.00711468,
2255,0.0005416,-0.03424401,0.00470209,
2256,-0.00100935,0.01533718,0.0144263,
2257,-0.00841945,0.01890683,0.00083702,
2258,0.00728701,0.03355469,-0.01499252,
2259,0.01962076,-0.03185603,-0.01201371,
2260,-0.00546525,-0.01816828,0.004579,
2261,-0.00802555,-0.0235843,-0.00076317,
2262,0.01043814,-0.07998474,0.00120629,
2263,0.00420972,0.04670085,-0.00145248,
2264,0.0102412,0.00177252,0.01326924,
2265,0.03301309,0.08946277,0.004579,
2266,0.00450514,-0.05861609,0.00142786,
2267,0.00034466,-0.01174291,-0.00312652,
2268,0.00096011,-0.12141728,-0.00551449,
2269,0.00125553,0.13286477,-0.01371237,
2270,0.00014771,-0.0513537,-0.00137862,
2271,0.00745933,-0.00189561,-0.00130477,
2272,0.00728701,-0.0095765,0.01486943,
2273,-0.00290496,0.00425896,-0.00416049,
2274,0.0079517,-0.02540605,-0.07464258,
2275,-0.01651886,0.00918261,0.01314615,
2276,0.01250608,-0.0377398,0.00878872,
2277,-0.01523871,-0.07530727,0.11073295,
2278,0.00760704,0.09384482,0.00733624,
2279,0.00152633,-0.1075572,-0.0859916,
2280,-0.0053914,0.07119602,-0.01917763,
2281,0.02016236,-0.40068687,-0.02730166,
2282,0.01619882,0.10923124,0.00994578,
2283,0.02845871,0.02279651,0.00637613,
2284,0.02188564,0.08237271,0.00955189,
2285,-0.00817326,0.0122599,-0.015091,
2286,-0.01299844,0.03567186,0.00462823,
2287,-0.00078778,-0.01580493,0.00622842,
2288,-0.00211717,-0.01669118,0.00445591,
2289,-0.0031019,0.00534216,0.02124556,
2290,-0.01102898,0.021024,-0.0090349,
2291,0.00216641,-0.04059552,-0.00216641,
2292,0.00164942,0.01885759,0.00859177,
2293,0.00507136,0.04217109,-0.00684388,
2294,-0.00502213,-0.00721315,0.0564743,
2295,0.00731162,-0.01198909,0.00785323,
2296,0.01314615,0.06898038,-0.06225959,
2297,0.00802555,-0.06693706,-0.03468713,
2298,-0.00066469,-0.02774478,-0.03884762,
2299,0.00534216,0.01102898,-0.01767591,
2300,0.00187099,-0.10100874,-0.0110536,
2301,0.0068685,-0.04995046,-0.00839483,
2302,0.01454939,-0.01386008,0.00487442,
2303,0.00709006,0.04143254,-0.00241259,
2304,-0.02616921,-0.01287535,-0.02122094,
2305,0.0068685,-0.00440667,-0.01627267,
2306,-0.00450514,-0.02604612,-0.01447554,
2307,-0.00684388,0.01499252,-0.00699159,
2308,0.01696198,-0.00071393,-0.00177252,
2309,0.01408165,0.06317047,-0.00044313,
2310,-0.00669617,0.03488408,-0.00580991,
2311,-0.01986694,-0.03239764,-0.01097975,
2312,0.00324961,0.05733594,-0.00844406,
2313,0.01080742,-0.00940418,-0.00211717,
2314,-0.01174291,-0.0133431,-0.02875413,
2315,-0.00076317,-0.03178218,-0.01974385,
2316,0.00324961,-0.0218364,-0.0161742,
2317,0.02927112,0.00305266,-0.01036429,
2318,0.02611998,-0.01762668,0.03919228,
2319,-0.00302805,-0.03850297,-0.00994578,
2320,0.0008124,0.11326863,-0.00667155,
2321,-0.00770552,-0.00832097,-0.01642038,
2322,0.01029043,0.00630228,0.00194484,
2323,0.01299844,0.06481989,0.02144251,
2324,0.02255033,-0.08109256,0.00059084,
2325,0.01447554,0.08975819,-0.01147211,
2326,0.00883796,0.01398317,0.00782861,
2327,-0.00231412,-0.05078748,-0.00445591,
2328,0.01176753,-0.00854254,0.01447554,
2329,-0.00864101,0.01011811,-0.06336741,
2330,-0.00327423,0.04076785,0.02023621,
2331,0.00716391,0.00817326,0.00285572,
2332,-0.00384045,-0.05603117,-0.00519445,
2333,-0.00649922,0.00009847,0.00610533,
2334,0.01122593,0.00654846,0.00893643,
2335,-0.00288034,-0.04647928,0.00317576,
2336,-0.00452976,0.0295173,-0.00644999,
2337,0.01925148,0.0428604,0.02607074,
2338,-0.00844406,-0.03867529,-0.0323484,
2339,-0.00918261,0.01102898,0.05214148,
2340,0.01816828,0.01122593,0.00150171,
2341,-0.00093549,0.00605609,-0.00915799,
2342,0.00366812,0.0008124,0.0664447,
2343,0.00728701,0.07688284,0.03023123,
2344,-0.00032004,-0.04958118,-0.06393363,
2345,0.00625304,-0.09795607,-0.0233135,
2346,-0.00177252,-0.0287049,-0.01523871,
2347,0.00243721,-0.01610034,-0.00854254,
2348,0.00388969,0.06740481,-0.0036435,
2349,-0.00297881,-0.00672079,-0.00534216,
2350,0.00672079,0.00105859,0.00100935,
2351,-0.00155095,-0.01408165,-0.00864101,
2352,-0.00162481,-0.0231904,0.00231412,
2353,0.01208757,0.00896105,-0.00142786,
2354,-0.00982269,-0.00029542,0.00292957,
2355,0.01112746,-0.01930072,-0.00130477,
2356,-0.0110536,-0.00206793,-0.00034466,
2357,0.00347118,0.01110284,-0.00128015,
2358,0.00039389,-0.03933999,-0.00014771,
2359,-0.00342194,0.02555376,-0.00167404,
2360,-0.00302805,0.00322499,0.01787286,
2361,0.00489903,-0.08023092,-0.00662231,
2362,0.0074101,0.05962544,0.02360892,
2363,-0.01356466,0.06543535,-0.01161982,
2364,0.00546525,-0.06430291,-0.00204332,
2365,0.01053662,-0.00288034,0.02422437,
2366,-0.01696198,0.04150639,0.01777439,
2367,-0.00854254,-0.1024366,-0.02065472,
2368,-0.01161982,0.00866563,-0.00497289,
2369,-0.00526831,0.11575508,-0.00470209,
2370,-0.0051206,-0.06994049,0.00140324,
2371,0.00551449,0.00576067,-0.02513525,
2372,-0.00204332,-0.03210222,-0.01762668,
2373,0.00802555,0.06866034,-0.02690776,
2374,-0.0125307,-0.15492274,-0.00654846,
2375,-0.00711468,0.03547492,-0.00253568,
2376,0.02392895,0.00571144,0.00187099,
2377,0.00428358,0.00893643,0.0153618,
2378,0.01112746,0.03857682,0.00408663,
2379,-0.01422936,-0.03168371,-0.0090349,
2380,0.01346619,0.00051698,-0.00339732,
2381,0.00841945,-0.01142287,0.01683889,
2382,-0.01331848,0.02262418,0.04170334,
2383,0.00251106,0.01063509,-0.02476597,
2384,0.00329885,-0.08670553,-0.01161982,
2385,-0.0079517,0.06649393,0.02134404,
2386,0.00785323,-0.03453942,-0.02087629,
2387,0.00753319,-0.07030976,-0.00100935,
2388,0.00937956,0.02599689,-0.04300811,
2389,-0.00152633,-0.03709972,-0.02922188,
2390,0.01573107,-0.05226458,-0.02161484,
2391,0.0074101,-0.03244687,-0.01491867,
2392,-0.00292957,-0.0204824,-0.00896105,
2393,0.00216641,0.08692709,-0.00334808,
2394,0.00263415,-0.0487934,0.00093549,
2395,0.00864101,0.01176753,0.00374198,
2396,0.00753319,-0.03525335,-0.01888221,
2397,0.00440667,-0.01959614,-0.00366812,
2398,-0.01093051,0.02323964,0.00093549,
2399,-0.01595264,-0.04212185,-0.00502213,
2400,0.00327423,0.01358928,0.00044313,
2401,0.00524369,-0.06026551,-0.00445591,
2402,-0.00839483,-0.08175726,-0.00329885,
2403,-0.00672079,0.09532192,-0.00662231,
2404,0.00142786,-0.00918261,0.0067454,
2405,-0.00851792,-0.0615949,0.00684388,
2406,-0.00913338,-0.02195949,-0.00807479,
2407,0.02060549,-0.04350047,0.00214179,
2408,-0.02122094,0.06661702,-0.02988657,
2409,0.00219103,0.00288034,0.00091088,
2410,0.00056622,0.04790714,0.00891181,
2411,-0.00078778,0.02163945,-0.03321004,
2412,0.01565722,-0.10435682,-0.01627267,
2413,0.00182175,-0.06590309,0.00608071,
2414,-0.01191524,0.06385978,-0.00140324,
2415,0.02410128,-0.02828639,-0.00864101,
2416,0.00556373,-0.01762668,-0.02149174,
2417,-0.00438205,-0.08335744,-0.00265877,
2418,-0.01075818,-0.00610533,0.00120629,
2419,-0.00507136,0.05923154,0.00302805,
2420,-0.00029542,-0.01506638,-0.00315114,
2421,0.01555874,-0.02109785,0.00118168,
2422,-0.00224026,-0.01479558,-0.00489903,
2423,0.01201371,0.05184606,0.01026582,
2424,-0.00125553,0.00743472,0.02294422,
2425,0.02099938,-0.02188564,0.01991618,
2426,0.01152135,-0.01171829,-0.01683889,
2427,-0.00851792,-0.00499751,0.00499751,
2428,-0.00359427,-0.00797632,0.00440667,
2429,-0.00777937,0.01491867,0.02259957,
2430,-0.00329885,0.00987192,-0.04601154,
2431,0.02107323,0.11769992,0.01856217,
2432,0.00115706,-0.00268339,-0.02230415,
2433,-0.00524369,-0.01962076,-0.01152135,
2434,0.0138847,-0.07230384,-0.01201371,
2435,-0.00635151,0.03220069,-0.01782362,
2436,0.01413088,-0.0419249,-0.01053662,
2437,-0.00482518,-0.04810409,-0.00915799,
2438,-0.00869025,0.03931537,-0.00709006,
2439,0.00305266,-0.0233135,-0.00502213,
2440,0.00115706,-0.02833562,0.01346619,
2441,0.00632689,0.05086133,0.00076317,
2442,0.004579,-0.01962076,-0.00588377,
2443,-0.01457401,-0.02442132,-0.0020187,
2444,-0.01161982,0.01925148,-0.01088127,
2445,-0.005933,0.04069399,-0.00534216,
2446,0.0040374,-0.04268807,-0.0175282,
2447,0.00472671,-0.06617389,-0.00041851,
2448,-0.01043814,-0.09670054,-0.00839483,
2449,0.01474634,-0.00071393,-0.01189062,
2450,-0.00780399,-0.0039143,0.01297383,
2451,0.00736086,0.02294422,0.00152633,
2452,-0.00041851,-0.07058056,0.00580991,
2453,0.00891181,-0.00009847,-0.00753319,
2454,0.01097975,-0.05398785,-0.01381085,
2455,-0.00290496,0.02011312,-0.0002708,
2456,0.0053914,-0.02826177,0.01733126,
2457,-0.0153618,0.02919726,0.00792708,
2458,0.00292957,-0.0431312,0.00118168,
2459,0.00977345,-0.11319478,-0.01516485,
2460,-0.0067454,-0.015091,0.0005416,
2461,-0.0125307,0.0318068,-0.01934996,
2462,0.00588377,0.04980275,-0.00059084,
2463,-0.00758243,0.0102412,-0.01856217,
2464,0.00699159,-0.04281116,0.01826675,
2465,0.00950265,-0.03867529,-0.00150171,
2466,0.01201371,-0.03264382,0.00359427,
2467,-0.0175282,0.02392895,0.00649922,
2468,-0.02959115,0.02919726,0.01917763,
2469,0.00297881,-0.06957121,0.01949767,
2470,0.00694235,-0.10342133,0.00807479,
2471,-0.00416049,0.01395856,0.03788751,
2472,0.00194484,0.09438643,-0.00339732,
2473,-0.0159034,-0.02033469,-0.03357931,
2474,0.02503677,-0.09118605,-0.03362855,
2475,0.005933,0.0096996,-0.06280119,
2476,0.00177252,0.00482518,-0.03365317,
2477,0.00526831,0.00329885,-0.02161484,
2478,0.00792708,-0.09054598,-0.01312153,
2479,-0.00477594,0.10568621,-0.00994578,
2480,-0.0031019,-0.05098443,-0.00411125,
2481,0.01270302,0.0393646,0.0008124,
2482,0.01179215,0.04643005,0.00440667,
2483,-0.00519445,-0.00164942,0.0008124,
2484,-0.00216641,-0.09980244,0.00519445,
2485,-0.00723777,0.03284076,-0.00179713,
2486,-0.00059084,-0.07075289,0.01349081,
2487,0.0366566,-0.06144719,0.0051206,
2488,0.01102898,0.06629699,-0.01627267,
2489,-0.00470209,0.11073295,0.00531755,
2490,-0.0093057,0.03008352,-0.02250109,
2491,-0.00285572,0.00974883,-0.00832097,
2492,-0.00785323,0.00987192,-0.00595762,
2493,0.0033727,0.00292957,-0.00100935,
2494,-0.00152633,-0.01804519,-0.0076809,
2495,0.02016236,0.00829636,0.00051698,
2496,0.00216641,0.07405174,0.01282612,
2497,0.01934996,-0.05411094,-0.01627267,
2498,0.00814865,0.05935464,-0.00384045,
2499,0.00502213,-0.12459304,-0.0167158,
2500,-0.00029542,0.05007355,0.00977345,
2501,-0.01851293,-0.09559272,-0.01597725,
2502,-0.01947305,-0.02245186,0.00167404,
2503,0.00489903,0.07639047,-0.02663696,
2504,0.00438205,0.00413587,0.02003927,
2505,0.00841945,0.04903958,-0.00226488,
2506,0.00305266,-0.04396822,-0.0095765,
2507,0.00610533,0.00366812,-0.01730664,
2508,-0.02188564,0.00096011,-0.02429823,
2509,0.00019695,0.07109755,0.00206793,
2510,0.00224026,-0.05716361,0.00083702,
2511,0.02028545,-0.01688813,0.00352041,
2512,0.01826675,-0.01506638,0.00610533,
2513,-0.00691773,0.01664195,-0.01669118,
2514,-0.00187099,0.0159034,0.01642038,
2515,-0.00558835,-0.07786757,-0.0064746,
2516,0.00580991,0.00275725,-0.005933,
2517,-0.00497289,-0.11930011,0.00349579,
2518,0.00396354,0.07973856,0.01142287,
2519,-0.01888221,-0.10113183,-0.01112746,
2520,0.01289997,-0.03611499,-0.03094516,
2521,-0.0067454,-0.04372204,-0.01851293,
2522,0.02259957,0.01779901,-0.00164942,
2523,0.01676504,-0.03092054,0.01610034,
2524,0.01349081,-0.01518947,0.02451979,
2525,0.0159034,-0.00342194,-0.00925647,
2526,-0.02279651,0.03850297,0.03328389,
2527,0.00349579,-0.05556342,0.06656779,
2528,0.00324961,-0.04625772,0.01265379,
2529,-0.00416049,-0.04118636,-0.03045279,
2530,-0.00617918,0.11230852,-0.03776442,
2531,-0.00470209,-0.16304676,-0.02715395,
2532,0.02397819,0.07922157,0.00755781,
2533,0.02705547,-0.01223528,-0.00580991,
2534,-0.00167404,0.02173793,-0.02146713,
2535,-0.00745933,-0.00733624,-0.00317576,
2536,-0.01413088,0.01346619,-0.01152135,
2537,0.00684388,-0.07156529,-0.00137862,
2538,0.00347118,-0.05484949,-0.00376659,
2539,-0.00241259,0.02737551,-0.00499751,
2540,-0.00105859,-0.07178686,0.00278186,
2541,0.00556373,0.04089094,0.01287535,
2542,-0.01806981,-0.03466252,-0.00526831,
2543,0.0149679,-0.0721069,0.02124556,
2544,0.00595762,-0.04268807,0.04734092,
2545,0.01738049,-0.05608041,-0.05915769,
2546,0.00137862,0.00312652,-0.01147211,
2547,0.00120629,0.0601178,-0.00034466,
2548,-0.00268339,-0.03116672,0.00644999,
2549,0.01166906,-0.04741478,0.03823216,
2550,0.0235843,0.02306731,0.01430321,
2551,-0.02119633,-0.01450016,0.00064007,
2552,0.01260455,-0.02016236,-0.0300589,
2553,0.0025603,-0.02070396,-0.00765628,
2554,-0.00649922,0.02434746,0.04450982,
2555,-0.01504176,-0.04217109,-0.04441135,
2556,-0.00288034,-0.15024527,-0.00022156,
2557,0.00349579,0.02481521,0.00265877,
2558,-0.00548987,-0.03020661,0.00731162,
2559,-0.02429823,0.08926583,-0.01701122,
2560,-0.00231412,-0.09734062,-0.03589343,
2561,0.00300343,-0.05324931,0.00866563,
2562,0.00576067,-0.06181646,-0.02119633,
2563,0.01235837,-0.05455407,0.00268339,
2564,0.01531256,-0.00292957,0.02026083,
2565,0.01614958,0.0371982,0.01176753,
2566,0.00521907,0.04325429,-0.01420474,
2567,0.00583453,-0.01863603,-0.01198909,
2568,0.01036429,0.04716859,0.01309692,
2569,0.0176513,-0.14335215,0.00507136,
2570,-0.00132939,0.04318044,-0.0093057,
2571,0.00359427,0.03392397,0.00846868,
2572,0.0039143,-0.03035432,0.00974883,
2573,-0.00305266,-0.05275694,0.04389437,
2574,-0.0318068,-0.00881334,-0.00777937,
2575,-0.02279651,0.06784794,0.01139826,
2576,0.01363852,-0.05460331,0.00696697,
2577,0.01592802,0.01198909,-0.05708975,
2578,-0.0130723,-0.11006826,-0.04052166,
2579,-0.02269804,-0.06161952,-0.0064746,
2580,0.02250109,-0.09172765,-0.00253568,
2581,-0.0048498,0.09918699,-0.02483983,
2582,0.01853755,-0.07658742,-0.011866,
2583,-0.00696697,-0.01568183,-0.01952228,
2584,-0.00164942,-0.02213182,-0.00251106,
2585,0.00696697,0.00145248,-0.00093549,
2586,-0.00526831,-0.03109287,-0.01371237,
2587,-0.00846868,0.02540605,0.01154597,
2588,-0.01184139,0.04970428,-0.00792708,
2589,0.00509598,-0.01405703,-0.00118168,
2590,-0.02579994,0.02712933,-0.00408663,
2591,-0.01174291,-0.05110752,-0.00950265,
2592,0.00502213,-0.02336273,-0.00809941,
2593,0.0025603,0.03289,-0.00002462,
2594,-0.00273263,0.00608071,-0.01996541,
2595,0.00583453,-0.03542568,-0.00078778,
2596,-0.00128015,-0.06489374,0.02146713,
2597,0.01147211,0.06797103,0.03899533,
2598,0.01203833,0.0819542,0.02727704,
2599,0.00379121,0.04921191,-0.06280119,
2600,0.01004425,-0.043402,0.01053662,
2601,0.00059084,-0.08128951,-0.00448052,
2602,0.00580991,0.03289,-0.00536678,
2603,-0.01861141,-0.01669118,-0.01041353,
2604,0.00709006,-0.02626769,-0.02023621,
2605,0.00548987,0.02754784,0.05595731,
2606,-0.02648925,-0.04322967,-0.03737053,
2607,-0.02333811,-0.00482518,-0.07503647,
2608,0.01467249,0.07375632,-0.03365317,
2609,0.00231412,0.1004179,-0.05765598,
2610,0.00177252,-0.16275135,0.00413587,
2611,0.00489903,-0.11752759,-0.01063509,
2612,0.00009847,-0.09155532,-0.02506139,
2613,0.01811904,0.07934467,-0.0008124,
2614,-0.01447554,0.0203593,0.00635151,
2615,0.00896105,0.0303297,-0.00450514,
2616,0.00189561,0.00297881,0.00654846,
2617,0.00243721,0.01196448,0.00694235,
2618,0.00790246,-0.00940418,-0.00241259,
2619,-0.00558835,-0.07971394,-0.00004924,
2620,0.01100436,-0.03412091,0.01029043,
2621,0.00846868,-0.07626738,0.01708508,
2622,0.00388969,-0.00940418,-0.00792708,
2623,-0.0179221,-0.06260425,0.04630696,
2624,0.0136139,-0.03037894,0.05780368,
2625,0.00617918,-0.10726178,-0.06112715,
2626,-0.00888719,0.03953693,-0.01090589,
2627,0.01088127,-0.04790714,0.00206793,
2628,0.00056622,0.00580991,-0.05893612,
2629,0.00322499,0.0416541,-0.01560798,
2630,0.00736086,0.05002431,0.00736086,
2631,0.00179713,-0.04409131,-0.00955189,
2632,0.00731162,-0.01198909,0.00612995,
2633,0.00302805,-0.04970428,-0.01282612,
2634,0.00096011,-0.00514522,0.02171331,
2635,0.00526831,0.03313618,0.03330851,
2636,0.00113244,-0.01930072,-0.01331848,
2637,-0.02323964,-0.06883267,-0.00216641,
2638,0.0074101,0.01110284,0.00413587,
2639,0.00662231,0.01486943,-0.00450514,
2640,-0.01777439,-0.02602151,0.00157557,
2641,0.00723777,-0.10994517,-0.01614958,
2642,-0.01063509,0.16218513,0.01117669,
2643,-0.0076809,0.01011811,0.0562035,
2644,0.01223528,-0.05386476,-0.05105828,
2645,0.01585416,-0.03943846,0.00748395,
2646,0.02188564,-0.04266345,-0.02508601,
2647,0.00064007,0.03584419,-0.00672079,
2648,0.01964537,0.01174291,-0.00829636,
2649,-0.0149679,-0.01147211,-0.01841446,
2650,0.01233375,0.02060549,0.00856716,
2651,-0.02173793,0.04707012,-0.00275725,
2652,0.03037894,-0.13151077,-0.02971425,
2653,-0.01422936,-0.05790216,-0.0176513,
2654,-0.01632191,0.02872951,-0.00937956,
2655,-0.01233375,-0.03055127,-0.02050701,
2656,0.0195469,-0.13018138,-0.01006887,
2657,-0.01233375,0.0853269,-0.01061047,
2658,0.01043814,-0.04251574,-0.01351543,
2659,0.00965036,-0.0462331,0.01134902,
2660,-0.00236335,-0.07013744,0.00334808,
2661,0.00952727,0.01774977,0.00322499,
2662,0.00605609,-0.02491368,0.00388969,
2663,0.00460362,-0.00896105,0.01127517,
2664,0.00839483,0.05861609,0.00839483,
2665,-0.00809941,0.00832097,0.01811904,
2666,-0.00105859,0.00758243,-0.00214179,
2667,0.00748395,-0.01297383,0.00908414,
2668,0.0074101,0.0257507,0.03424401,
2669,0.00733624,-0.04236803,0.05482487,
2670,-0.01065971,0.0962328,0.01925148,
2671,-0.00260954,-0.0742733,-0.00034466,
2672,-0.00514522,0.03574572,0.01418012,
2673,-0.00625304,-0.05480026,-0.01966999,
2674,0.00709006,0.03318542,0.07986165,
2675,-0.00219103,0.21144627,-0.10066408,
2676,0.01184139,-0.1831845,-0.02552914,
2677,0.00002462,0.03156061,0.00563758,
2678,0.02087629,-0.09350017,-0.03867529,
2679,0.00940418,-0.12624246,-0.02163945,
2680,-0.00386507,0.022378,-0.02983734,
2681,-0.0093057,0.03764133,-0.02085167,
2682,-0.01164444,-0.03476099,-0.01664195,
2683,-0.01272764,0.01019196,-0.00046775,
2684,0.00352041,-0.00595762,0.00226488,
2685,0.00600686,0.02272266,-0.01553412,
2686,-0.00305266,-0.03813369,-0.00413587,
2687,0.00388969,-0.00797632,-0.00438205,
2688,-0.00489903,0.06001933,0.02752322,
2689,0.00694235,-0.01319539,0.00659769,
2690,-0.00967498,0.01262917,0.01602649,
2691,-0.00472671,-0.02419975,-0.01029043,
2692,-0.0036435,-0.03658274,-0.0603886,
2693,0.00514522,-0.01610034,-0.00883796,
2694,0.00251106,-0.05356934,-0.0010832,
2695,-0.00531755,0.03466252,0.0125307,
2696,-0.00908414,0.09025056,-0.01189062,
2697,-0.01430321,-0.01090589,-0.02392895,
2698,-0.01189062,-0.02122094,-0.00625304,
2699,0.01203833,-0.0053914,0.00039389,
2700,-0.00007385,0.06171799,-0.00780399,
2701,0.00004924,-0.16070803,0.01344157,
2702,-0.01762668,0.03535183,0.03414553,
2703,0.0095765,0.03860144,-0.00100935,
2704,-0.01848832,-0.01139826,-0.043402,
2705,0.02747398,-0.18397229,0.02159022,
2706,-0.0053914,0.08399752,0.01922686,
2707,0.02225491,-0.02016236,-0.03407168,
2708,0.0010832,0.0357211,-0.01410627,
2709,0.00908414,-0.04502681,0.00371736,
2710,0.00809941,0.11235776,0.01447554,
2711,0.00805017,0.08227424,0.01541103,
2712,0.02225491,-0.09042288,-0.0031019,
2713,0.00962574,-0.11479497,0.00908414,
2714,0.01016734,0.07141758,-0.01324463,
2715,0.00785323,0.06895576,0.00130477,
2716,-0.01147211,0.04670085,0.00014771,
2717,0.01314615,0.07092522,0.01228451,
2718,-0.00598224,0.00241259,0.01102898,
2719,-0.00339732,0.02653849,0.01523871,
2720,-0.01779901,0.02685853,0.0518953,
2721,-0.00450514,-0.10615396,0.03616423,
2722,-0.00531755,-0.01413088,-0.02673544,
2723,0.01740511,-0.00386507,0.04293425,
2724,0.00950265,-0.11528733,0.0556619,
2725,0.00219103,0.04101403,-0.03833064,
2726,0.01740511,-0.01691275,-0.06580462,
2727,-0.00548987,0.06617389,-0.02415052,
2728,0.00644999,-0.06408134,-0.02050701,
2729,0.00408663,-0.00164942,-0.01718355,
2730,0.0161742,0.06912809,0.00462823,
2731,0.02200873,0.00071393,0.00472671,
2732,-0.01154597,0.06816797,-0.00718853,
2733,-0.00667155,-0.04495295,-0.00588377,
2734,0.00864101,-0.00864101,0.02415052,
2735,-0.00716391,0.07616891,-0.00354503,
2736,-0.01829137,-0.09125991,-0.01129978,
2737,-0.00595762,0.02936959,-0.00263415,
2738,-0.00243721,-0.07343628,0.00777937,
2739,-0.00004924,-0.00388969,0.01654347,
2740,-0.00361888,0.12368216,-0.0190053,
2741,-0.00265877,-0.10859116,-0.00076317,
2742,0.00125553,0.09290933,-0.00386507,
2743,-0.00361888,-0.01565722,-0.00211717,
2744,0.00440667,0.03392397,0.02550452,
2745,-0.00396354,0.00497289,0.00994578,
2746,0.01425398,0.03919228,-0.0243967,
2747,-0.00152633,-0.02740013,-0.00194484,
2748,0.01962076,-0.01565722,0.00231412,
2749,-0.01715893,-0.01223528,-0.00142786,
2750,-0.01265379,-0.11282551,-0.02712933,
2751,0.010512,-0.03133905,0.00780399,
2752,0.03419477,0.10255969,0.01666656,
2753,-0.00755781,0.01922686,-0.00445591,
2754,0.00758243,0.03473637,0.00096011,
2755,0.01486943,-0.01462325,0.00654846,
2756,0.00905952,0.00199408,-0.00573606,
2757,-0.0039143,-0.02090091,0.00438205,
2758,-0.01683889,-0.00386507,-0.00659769,
2759,-0.00051698,0.07235308,0.00093549,
2760,-0.01831599,-0.04281116,0.00608071,
2761,-0.02594765,0.06161952,-0.02427361,
2762,0.0096996,-0.09226925,-0.04354971,
2763,0.00706544,0.05159988,-0.01757744,
2764,-0.00078778,-0.06297352,-0.00694235,
2765,0.0159034,-0.06600157,-0.00297881,
2766,0.01164444,-0.08190497,0.00324961,
2767,0.01558336,-0.03658274,-0.00731162,
2768,-0.00339732,0.09199845,-0.00982269,
2769,0.01410627,-0.01580493,-0.00965036,
2770,0.00334808,0.02181178,0.00041851,
2771,-0.01085665,-0.10886196,-0.01019196,
2772,0.01149673,0.05521877,0.02321502,
2773,-0.01265379,0.01715893,0.03050203,
2774,-0.02459365,0.06693706,0.0087641,
2775,0.01016734,-0.12631631,-0.01999003,
2776,0.01782362,0.03722282,-0.03869991,
2777,-0.00438205,0.03660736,-0.01585416,
2778,-0.01371237,-0.01097975,-0.00288034,
2779,0.00041851,-0.01696198,0.08008321,
2780,0.02149174,-0.04588844,-0.01959614,
2781,0.00733624,-0.03970926,-0.02737551,
2782,0.00224026,-0.01036429,-0.04835027,
2783,-0.00551449,0.00625304,-0.02021159,
2784,0.0022895,-0.06624775,-0.01745435,
2785,-0.00297881,0.10576006,-0.01806981,
2786,0.00177252,-0.0285818,-0.00637613,
2787,0.01425398,-0.00007385,-0.00076317,
2788,0.00260954,-0.05460331,-0.00354503,
2789,0.00445591,-0.01356466,0.00790246,
2790,-0.00519445,-0.05241228,0.01826675,
2791,-0.00573606,0.05807449,-0.0048498,
2792,0.00999502,0.02040854,0.0096996,
2793,-0.01393394,0.01848832,0.00448052,
2794,-0.00273263,0.04054628,-0.00241259,
2795,0.00829636,0.01238299,-0.01061047,
2796,-0.00068931,0.00563758,0.01056124,
2797,-0.00329885,-0.08239733,-0.00032004,
2798,-0.00792708,-0.06811874,-0.02082705,
2799,0.00204332,0.04647928,0.01843908,
2800,-0.01435245,-0.07252541,-0.00827174,
2801,-0.00896105,-0.01831599,-0.01802057,
2802,0.0036435,-0.03269306,-0.00721315,
2803,0.00617918,0.00841945,-0.01713431,
2804,0.00497289,-0.02405204,0.00896105,
2805,-0.00477594,-0.05679434,-0.00093549,
2806,0.01336772,-0.02799097,-0.00241259,
2807,0.00576067,0.04549455,0.00179713,
2808,-0.01125055,-0.103249,-0.01856217,
2809,0.00519445,0.04679932,-0.02250109,
2810,0.01420474,0.02085167,-0.00950265,
2811,-0.00704082,-0.00489903,-0.00955189,
2812,-0.00322499,0.03648427,-0.01075818,
2813,0.00450514,-0.00608071,-0.00905952,
2814,0.01038891,-0.03673045,0.00132939,
2815,-0.00524369,0.01285073,-0.00595762,
2816,0.00204332,-0.02144251,-0.00605609,
2817,-0.00760704,0.00856716,0.00489903,
2818,0.00071393,0.02939421,0.00140324,
2819,0.01097975,-0.05384014,-0.00214179,
2820,0.01627267,0.01041353,-0.0093057,
2821,-0.00711468,-0.03431786,-0.00388969,
2822,-0.00322499,-0.04414055,0.01038891,
2823,0.00352041,0.08084638,-0.00711468,
2824,-0.00248644,-0.00187099,0.02823715,
2825,0.01856217,0.031536,0.04470677,
2826,-0.00142786,-0.02063011,-0.02013774,
2827,-0.0008124,0.02875413,0.02223029,
2828,0.0179221,0.00979807,-0.03601652,
2829,-0.0051206,-0.01738049,-0.0218364,
2830,-0.00716391,0.0172574,-0.01149673,
2831,0.00231412,-0.05617888,-0.0048498,
2832,0.01738049,-0.0462331,0.00145248,
2833,-0.02476597,0.03493332,-0.00105859,
2834,0.00856716,-0.02380586,-0.00758243,
2835,0.00420972,0.02176255,-0.00007385,
2836,-0.02644002,0.02050701,-0.00595762,
2837,0.00723777,-0.08682862,0.01149673,
2838,-0.00140324,0.04399284,-0.00497289,
2839,0.00721315,-0.02860642,0.00649922,
2840,0.00032004,0.00659769,-0.00374198,
2841,-0.00226488,-0.02515987,0.00243721,
2842,0.00226488,0.03892148,0.00585915,
2843,0.00317576,-0.00792708,0.01934996,
2844,-0.00477594,0.00044313,-0.00039389,
2845,0.00083702,0.00046775,0.01966999,
2846,-0.00819788,-0.02016236,-0.02149174,
2847,-0.00292957,-0.00785323,0.00078778,
2848,0.00521907,0.0204824,-0.00561296,
2849,-0.02257495,-0.02875413,-0.01302306,
2850,-0.00839483,0.011866,-0.00297881,
2851,0.00150171,0.12520849,-0.00288034,
2852,0.00785323,-0.18793583,0.00115706,
2853,0.0082225,-0.0115952,0.01248146,
2854,0.00029542,0.00672079,-0.00888719,
2855,-0.0022895,0.02565223,0.0008124,
2856,-0.00214179,-0.06090559,0.0064746,
2857,0.00918261,-0.03321004,-0.00891181,
2858,-0.00659769,0.06447523,-0.0079517,
2859,-0.01949767,-0.00366812,-0.01142287,
2860,0.0122599,0.00672079,-0.01467249,
2861,-0.00226488,0.03513026,-0.00694235,
2862,0.01061047,-0.00361888,-0.0264154,
2863,0.01610034,0.02311655,0.01678966,
2864,0.00901028,0.05196916,-0.00733624,
2865,-0.00142786,-0.0827666,0.00544064,
2866,-0.00083702,-0.07215613,-0.00802555,
2867,0.02471674,-0.01708508,-0.01351543,
2868,0.00388969,-0.01164444,-0.0096996,
2869,-0.01706046,-0.02959115,-0.00617918,
2870,0.01386008,-0.01179215,0.00548987,
2871,-0.01573107,-0.04980275,-0.00918261,
2872,-0.00667155,-0.03375164,-0.00004924,
2873,0.01102898,0.10059023,-0.00662231,
2874,0.01681427,-0.02011312,-0.00120629,
2875,0.00076317,-0.00534216,0.00029542,
2876,-0.0125307,0.05952696,-0.01314615,
2877,0.00411125,-0.03697663,0.00576067,
2878,-0.00465285,-0.01742973,-0.00684388,
2879,0.00669617,-0.0337024,-0.00093549,
2880,0.01548489,0.06742943,0.00157557,
2881,-0.00588377,-0.08919197,-0.00748395,
2882,0.01117669,-0.03879838,-0.00630228,
2883,-0.00448052,-0.00625304,-0.03751823,
2884,-0.01605111,0.00992116,-0.00371736,
2885,0.01848832,0.0138847,0.01614958,
2886,-0.01595264,-0.04753787,-0.02840948,
2887,-0.00445591,0.010512,-0.00952727,
2888,0.00896105,0.07476567,-0.01521409,
2889,-0.00300343,-0.00551449,-0.01767591,
2890,0.0138847,-0.00718853,-0.00470209,
2891,0.01211219,-0.07328857,-0.00526831,
2892,0.00965036,0.06144719,0.01642038,
2893,-0.01068433,-0.08318512,0.00881334,
2894,-0.00056622,0.05644968,-0.02762169,
2895,-0.00032004,-0.058493,0.00440667,
2896,0.00226488,0.00059084,-0.02429823,
2897,-0.01265379,0.05763136,-0.00548987,
2898,-0.0048498,-0.03444095,-0.01888221,
2899,-0.00420972,0.03424401,-0.01085665,
2900,0.00965036,-0.00204332,0.00177252,
2901,0.00982269,-0.02816329,-0.00728701,
2902,0.00450514,-0.08404675,-0.00396354,
2903,0.00167404,0.11124994,0.00573606,
2904,0.00130477,-0.08842881,-0.00679464,
2905,-0.00864101,0.09027518,-0.00807479,
2906,-0.00059084,-0.01297383,-0.00408663,
2907,0.01265379,-0.04207261,-0.00928109,
2908,0.01223528,0.0718361,0.00179713,
2909,-0.01031505,-0.04670085,0.00558835,
2910,-0.00748395,0.01065971,-0.00359427,
2911,-0.0010832,-0.03700125,-0.00285572,
2912,-0.00632689,-0.01137364,-0.01984232,
2913,-0.00679464,-0.01486943,0.0008124,
2914,-0.00275725,0.02530758,-0.00275725,
2915,0.00475133,0.05393862,-0.0068685,
2916,0.01718355,-0.00401278,0.00416049,
2917,0.00462823,-0.011866,-0.00571144,
2918,-0.00642537,-0.02552914,0.00014771,
2919,0.00155095,0.00709006,-0.01568183,
2920,-0.01393394,0.02518448,-0.0266862,
2921,0.02299346,-0.08956125,-0.00236335,
2922,0.00265877,0.01011811,-0.00253568,
2923,-0.00521907,0.0285818,-0.00721315,
2924,-0.01989156,0.05223996,0.00977345,
2925,0.01386008,0.00428358,-0.01654347,
2926,0.00672079,-0.08894579,-0.00977345,
2927,0.01878374,0.00445591,-0.02562761,
2928,-0.00396354,-0.04611001,-0.010512,
2929,0.02050701,-0.00064007,-0.00167404,
2930,0.00487442,-0.04938424,-0.00728701,
2931,0.0005416,0.13431725,-0.00059084,
2932,0.00977345,-0.04465753,-0.00187099,
2933,0.00933032,0.02932035,-0.00489903,
2934,-0.01277688,0.00507136,0.00691773,
2935,0.00782861,0.00901028,0.00445591,
2936,-0.00022156,-0.01430321,0.00408663,
2937,0.00243721,-0.01868526,-0.00408663,
2938,0.00044313,0.07375632,0.0025603,
2939,0.00571144,-0.10814804,-0.01491867,
2940,0.00644999,0.06765099,-0.00452976,
2941,0.00164942,-0.01171829,-0.00933032,
2942,0.01127517,-0.06238268,0.00100935,
2943,0.00974883,-0.02309193,-0.00329885,
2944,0.01363852,0.02321502,0.01363852,
2945,0.01073356,0.0107828,-0.0005416,
2946,0.02085167,-0.00059084,0.00278186,
2947,-0.01245684,-0.03111749,0.0022895,
2948,-0.00236335,-0.00723777,0.004579,
2949,0.01528794,0.02577532,-0.01080742,
2950,-0.00851792,-0.00667155,-0.00846868,
2951,-0.01056124,0.09879309,-0.00477594,
2952,0.00514522,-0.09849768,-0.00292957,
2953,-0.00600686,0.0385522,-0.00231412,
2954,0.0010832,0.01216142,0.00807479,
2955,-0.00088626,0.09608509,-0.01678966,
2956,0.00694235,-0.0981284,0.00388969,
2957,0.00669617,0.04199876,-0.00100935,
2958,0.00524369,0.00839483,-0.01149673,
2959,-0.01582954,-0.03136367,-0.01004425,
2960,-0.00312652,0.00297881,-0.00140324,
2961,0.00711468,0.00029542,-0.00260954,
2962,0.00790246,-0.01750359,-0.00064007,
2963,0.02395357,-0.0133431,0.00128015,
2964,-0.0238551,-0.00598224,-0.00152633,
2965,-0.00531755,0.01302306,0.00612995,
2966,0.00859177,-0.00051698,-0.00132939,
2967,-0.02107323,-0.016445,-0.00933032,
2968,0.00654846,-0.02823715,0.00945341,
2969,-0.00046775,0.01134902,-0.00068931,
2970,0.00846868,-0.07515956,-0.00445591,
2971,-0.01418012,0.10046714,-0.0062038,
2972,-0.01036429,0.0022895,-0.01152135,
2973,0.02028545,-0.11026521,0.00241259,
2974,0.00398816,-0.03673045,-0.00352041,
2975,0.00420972,-0.00871487,-0.01324463,
2976,0.00169866,-0.0403001,-0.00625304,
2977,0.00388969,0.10017172,0.00017233,
2978,0.00913338,-0.13645904,-0.00354503,
2979,-0.01420474,-0.03527797,-0.01228451,
2980,-0.00489903,0.01031505,-0.00260954,
2981,-0.02134404,-0.02087629,-0.01014272,
2982,0.00558835,0.00231412,-0.00433281,
2983,0.01100436,-0.00322499,-0.00524369,
2984,-0.00347118,-0.01546027,-0.00206793,
2985,-0.01720817,0.09480494,-0.00238797,
2986,-0.01757744,-0.05824681,-0.00078778,
2987,0.01368775,-0.00509598,-0.00723777,
2988,0.00659769,-0.00681926,-0.0093057,
2989,-0.01326924,0.01233375,0.00896105,
2990,0.00297881,0.00374198,-0.00379121,
2991,0.00561296,-0.01553412,-0.00814865,
2992,-0.00068931,-0.00901028,-0.00192022,
