製品名,ワイヤレス筋電センサ（乾式）,ワイヤレス筋電センサ（乾式）,
計測時ID,1,2,
計測開始時刻,10/10 16:07:20,10/10 16:07:20,
サンプリング周波数,200,200,
シーケンス数,7188,7188,
PGAゲイン,x12,x12,
補正値キー,FFFFFFFFFFFFFFFFFFFFFFFFFFFFFFFF,FFFFFFFFFFFFFFFFFFFFFFFFFFFFFFFF,
コメント,,,
ファイル保存形式,演算データ,演算データ,
シーケンス番号,EMG01[ｍV],EMG01[ｍV],
1,0,0,
2,-0.01479558,-0.04672547,
3,-0.00758243,0.01843908,
4,0.00041851,-0.00462823,
5,0.00711468,-0.00733624,
6,-0.00322499,0.01137364,
7,0.01363852,0.02397819,
8,-0.00044313,0.00371736,
9,0.00544064,-0.05989624,
10,-0.00044313,0.08377595,
11,0.01398317,-0.03636118,
12,-0.00169866,0.02097476,
13,-0.02168869,-0.03247149,
14,0.00563758,0.01678966,
15,-0.00189561,0.0549972,
16,-0.00704082,-0.0366566,
17,0.00130477,0.00125553,
18,0.01516485,-0.01755282,
19,0.00051698,0.02715395,
20,-0.01154597,0.03744438,
21,0.03252073,-0.03906919,
22,0.01634653,-0.05110752,
23,-0.01257993,-0.08350515,
24,0.01486943,0.06467218,
25,-0.00384045,0.04337738,
26,-0.00475133,0.0125307,
27,-0.01344157,-0.05610502,
28,-0.01701122,0.02836024,
29,0.00817326,-0.08057558,
30,0.00684388,-0.0010832,
31,-0.01289997,0.02459365,
32,-0.02040854,0.02875413,
33,0.02397819,-0.00460362,
34,-0.00487442,-0.03872453,
35,0.00571144,-0.02661234,
36,-0.01344157,-0.05204301,
37,-0.00140324,-0.01597725,
38,0.01925148,0.01041353,
39,0.01198909,-0.00999502,
40,-0.01196448,-0.01691275,
41,0.00379121,0.02279651,
42,-0.00694235,-0.05654815,
43,0.00019695,0.10649861,
44,-0.00642537,-0.04458368,
45,-0.00374198,0.03505641,
46,0.01356466,-0.07562731,
47,0.00396354,0.08965972,
48,0.00782861,0.0136139,
49,0.01376161,-0.01573107,
50,0.00893643,0.0096996,
51,-0.00179713,-0.00878872,
52,0.01632191,-0.02767093,
53,-0.01154597,-0.04288502,
54,0.00696697,-0.02939421,
55,0.00322499,0.08655782,
56,-0.02159022,-0.06570615,
57,0.00238797,0.00805017,
58,-0.00051698,0.00610533,
59,0.00056622,0.01634653,
60,0.00118168,0.03042817,
61,0.01420474,0.01595264,
62,0.01314615,-0.04500219,
63,0.00428358,0.01351543,
64,-0.00817326,0.04241727,
65,-0.00817326,-0.05807449,
66,-0.00728701,0.01688813,
67,-0.00189561,-0.01223528,
68,-0.00236335,-0.11671519,
69,0.01026582,0.04020163,
70,-0.01097975,-0.02808944,
71,-0.00667155,-0.00428358,
72,0.00002462,0.04950733,
73,0.02294422,0.02033469,
74,-0.0233135,-0.0444852,
75,-0.00324961,0.0167158,
76,0.01139826,0.00721315,
77,-0.00558835,-0.0176513,
78,0.0002708,-0.01088127,
79,-0.00137862,-0.01381085,
80,0.00091088,-0.02747398,
81,0.00753319,-0.059847,
82,0.00317576,0.03675507,
83,-0.00423434,-0.04598692,
84,0.00851792,0.02255033,
85,0.0033727,0.0176513,
86,0.02085167,-0.01216142,
87,0.00992116,-0.04167872,
88,-0.0025603,0.00580991,
89,-0.00654846,0.01829137,
90,-0.01368775,0.01309692,
91,0.02550452,-0.02072858,
92,-0.02235338,0.00832097,
93,-0.01112746,0.07727673,
94,0.00654846,-0.00278186,
95,-0.01272764,-0.04310658,
96,0.00164942,-0.01398317,
97,0.00312652,0.05608041,
98,0.01676504,-0.1165921,
99,0.01324463,0.02981272,
100,0.01262917,-0.01112746,
101,0.01088127,0.00137862,
102,0.01681427,-0.02353506,
103,-0.01462325,0.03847835,
104,-0.01966999,-0.0090349,
105,0.00376659,-0.02971425,
106,0.00396354,0.06036398,
107,0.00305266,-0.0161742,
108,0.01578031,-0.04261422,
109,0.03702587,-0.04133407,
110,-0.04315582,0.00908414,
111,-0.01565722,0.02996043,
112,0.00452976,-0.06565691,
113,0.02545529,0.02422437,
114,-0.00187099,-0.08306202,
115,0.01154597,0.02533219,
116,-0.00546525,-0.01029043,
117,0.00009847,-0.03303771,
118,0.02040854,0.05534186,
119,0.00093549,-0.08670553,
120,-0.00723777,0.05630197,
121,-0.00482518,-0.04827642,
122,-0.00716391,-0.05989624,
123,-0.01762668,0.02072858,
124,-0.00580991,0.01730664,
125,0.01708508,-0.02759707,
126,0.01578031,0.03549954,
127,-0.01570645,-0.0390938,
128,0.00536678,-0.01386008,
129,0.01418012,0.0040374,
130,0.01555874,-0.08953663,
131,-0.00568682,-0.00142786,
132,-0.00610533,-0.02555376,
133,0.01770053,0.06139795,
134,-0.00494827,-0.07673513,
135,0.00497289,-0.00669617,
136,0.00736086,0.03552416,
137,0.02737551,-0.01878374,
138,-0.01134902,0.00349579,
139,-0.0257507,-0.01029043,
140,0.00487442,-0.0470455,
141,0.00684388,0.01381085,
142,0.01272764,-0.00809941,
143,-0.03271767,0.04803023,
144,-0.02454441,-0.05635121,
145,0.00573606,-0.04288502,
146,0.00248644,0.06383516,
147,0.02016236,-0.08232348,
148,0.01432783,0.01408165,
149,0.01201371,0.01435245,
150,0.00192022,-0.00157557,
151,0.00965036,0.0040374,
152,0.00189561,0.01518947,
153,-0.01149673,-0.02644002,
154,0.01363852,0.037469,
155,0.02119633,-0.03074821,
156,-0.00064007,-0.01346619,
157,-0.01915301,-0.04217109,
158,-0.01351543,0.06920194,
159,0.0022895,-0.05115675,
160,0.04027548,-0.03675507,
161,-0.02245186,0.00302805,
162,-0.01117669,0.00236335,
163,-0.00672079,-0.06285043,
164,-0.00933032,0.00292957,
165,-0.00297881,-0.01356466,
166,0.00780399,0.01634653,
167,0.01294921,-0.03899533,
168,0.01223528,0.0564743,
169,0.00915799,-0.00630228,
170,-0.00608071,0.03638579,
171,-0.01198909,-0.02698162,
172,-0.00420972,-0.0774983,
173,0.02112247,0.03030508,
174,-0.02801558,-0.05967467,
175,-0.00462823,-0.04963042,
176,0.00347118,0.02685853,
177,-0.0076809,0.03417015,
178,0.0207532,-0.04611001,
179,0.00780399,-0.01681427,
180,-0.00462823,0.03604114,
181,0.02095014,0.01147211,
182,-0.00805017,-0.00630228,
183,-0.00130477,-0.01966999,
184,0.0300589,-0.03621347,
185,0.00546525,-0.02471674,
186,-0.02365815,0.00398816,
187,0.01171829,-0.00219103,
188,-0.00472671,-0.00384045,
189,0.00248644,0.01848832,
190,0.01093051,-0.00859177,
191,0.00044313,-0.00546525,
192,0.00962574,0.01755282,
193,-0.00672079,0.02550452,
194,0.00083702,-0.0179221,
195,0.01075818,0.02611998,
196,0.00083702,-0.07675975,
197,0.00004924,-0.02176255,
198,-0.00182175,-0.03094516,
199,0.04625772,-0.04194952,
200,0.00622842,-0.01523871,
201,-0.02840948,-0.02397819,
202,0.01324463,0.02159022,
203,0.01831599,0.00386507,
204,-0.00654846,0.0544556,
205,-0.01381085,-0.09800531,
206,0.01056124,-0.00354503,
207,-0.01573107,0.00044313,
208,0.00329885,0.00583453,
209,0.01506638,-0.01875912,
210,0.00194484,0.00155095,
211,-0.00950265,-0.02151636,
212,0.01122593,0.01149673,
213,-0.01043814,0.01836523,
214,-0.00805017,-0.04362356,
215,0.00807479,0.01221066,
216,0.03239764,-0.01484481,
217,0.00425896,-0.01634653,
218,-0.01080742,-0.02294422,
219,0.00285572,-0.11597664,
220,-0.00672079,0.03887224,
221,-0.00662231,0.02996043,
222,0.00684388,-0.03796136,
223,0.02909879,-0.04537146,
224,-0.00659769,-0.01902992,
225,-0.00869025,0.02530758,
226,0.00433281,0.02557838,
227,0.02235338,-0.05546495,
228,-0.00096011,0.02607074,
229,0.00679464,-0.02488907,
230,0.01454939,-0.00580991,
231,-0.01962076,-0.05672048,
232,-0.00598224,0.02427361,
233,0.00654846,0.0218364,
234,-0.01484481,-0.00718853,
235,0.00002462,-0.00078778,
236,0.00093549,-0.03252073,
237,-0.01257993,-0.01405703,
238,0.01715893,0.01410627,
239,0.00728701,-0.02235338,
240,0.00076317,-0.0408417,
241,0.0079517,0.03638579,
242,0.0074101,-0.01893145,
243,-0.00460362,-0.01211219,
244,-0.01432783,-0.03658274,
245,0.0068685,-0.01125055,
246,0.03515488,0.03165909,
247,-0.00137862,-0.04881802,
248,-0.0292465,-0.00989654,
249,-0.00955189,-0.01166906,
250,-0.00841945,0.02602151,
251,-0.01117669,0.01314615,
252,0.01523871,-0.03929075,
253,-0.01019196,0.01708508,
254,0.00928109,-0.08143722,
255,-0.00253568,-0.03136367,
256,-0.00268339,0.04384513,
257,0.00832097,-0.00263415,
258,-0.00238797,-0.02193487,
259,-0.00765628,-0.00297881,
260,0.00046775,-0.00204332,
261,0.00622842,0.00022156,
262,0.00829636,-0.03010814,
263,0.00925647,-0.00472671,
264,0.00352041,-0.06489374,
265,-0.00819788,0.03047741,
266,0.00425896,0.02661234,
267,-0.00241259,0.02939421,
268,0.01272764,0.00571144,
269,-0.0176513,0.00881334,
270,0.00329885,-0.05091057,
271,-0.01179215,-0.01011811,
272,0.01430321,-0.00413587,
273,0.00470209,-0.03998006,
274,0.02779402,0.04015239,
275,-0.00194484,-0.0485226,
276,0.0122599,-0.01974385,
277,-0.00696697,0.021024,
278,0.00585915,-0.01299844,
279,0.00494827,-0.03687816,
280,-0.00164942,0.00809941,
281,0.00433281,0.00950265,
282,-0.00253568,0.04470677,
283,-0.00408663,-0.0559327,
284,0.00014771,0.00438205,
285,-0.0076809,0.01312153,
286,-0.00162481,-0.05019664,
287,0.01122593,-0.00585915,
288,0.02653849,-0.02095014,
289,0.0022895,-0.03013276,
290,-0.02639078,0.01659271,
291,-0.0144263,0.02939421,
292,0.00482518,-0.02680929,
293,0.00955189,0.02772017,
294,0.00145248,-0.0008124,
295,0.010512,-0.00790246,
296,0.00718853,-0.02159022,
297,0.01491867,0.03220069,
298,-0.0175282,-0.03591805,
299,-0.00571144,0.05726208,
300,0.01585416,-0.01521409,
301,0.01425398,-0.06637084,
302,-0.02065472,0.03515488,
303,0.01804519,-0.00546525,
304,0.01971923,-0.0176513,
305,-0.00182175,0.02397819,
306,-0.01184139,0.01573107,
307,-0.01093051,-0.03503179,
308,-0.00088626,-0.02195949,
309,-0.00219103,0.01233375,
310,0.00435743,0.00017233,
311,0.016445,-0.01541103,
312,0.00753319,-0.02611998,
313,-0.02383048,-0.01942381,
314,0.01457401,-0.03542568,
315,-0.00017233,-0.00630228,
316,0.01898068,0.00100935,
317,-0.00526831,0.02964039,
318,0.00723777,-0.0544556,
319,-0.02415052,-0.0413833,
320,0.00413587,0.02144251,
321,0.00792708,0.00994578,
322,0.00388969,0.01006887,
323,-0.00918261,-0.00236335,
324,-0.00499751,0.03798598,
325,-0.00315114,-0.01056124,
326,0.00797632,-0.03970926,
327,0.00162481,-0.00268339,
328,0.00706544,0.00305266,
329,0.00189561,0.0603886,
330,0.02208258,-0.03732129,
331,-0.00366812,-0.05263385,
332,-0.00334808,0.00278186,
333,0.00992116,-0.0172574,
334,-0.0031019,0.03431786,
335,-0.02163945,-0.01585416,
336,-0.00691773,0.00068931,
337,-0.00041851,0.03414553,
338,0.00041851,-0.03303771,
339,0.00253568,-0.03586881,
340,0.00805017,0.06555844,
341,0.01358928,-0.04768558,
342,-0.00420972,0.01659271,
343,0.00280648,-0.03690278,
344,0.0010832,-0.04768558,
345,0.01265379,-0.01139826,
346,0.00608071,0.02875413,
347,-0.00428358,0.0005416,
348,-0.00376659,0.00649922,
349,0.03628732,-0.00462823,
350,-0.02390433,-0.00571144,
351,-0.01521409,0.00014771,
352,-0.02703085,-0.0161742,
353,0.00142786,0.00544064,
354,0.01139826,-0.01952228,
355,0.02003927,0.01285073,
356,-0.00219103,-0.01152135,
357,-0.00918261,0.0343671,
358,0.0005416,0.00214179,
359,0.00696697,0.02262418,
360,-0.01312153,0.05787754,
361,0.01019196,-0.01038891,
362,0.02464288,-0.03417015,
363,-0.00398816,-0.00497289,
364,-0.01312153,-0.02395357,
365,0.00745933,0.00204332,
366,0.01447554,0.00297881,
367,0.02390433,0.00305266,
368,-0.00967498,-0.01302306,
369,0.00494827,-0.01922686,
370,-0.00177252,0.01339234,
371,0.011866,0.03096978,
372,0.00041851,-0.03000966,
373,-0.01245684,0.00797632,
374,-0.00760704,0.00145248,
375,0.01989156,0.02247648,
376,0.01420474,-0.00979807,
377,-0.0153618,-0.00064007,
378,0.00408663,0.0175282,
379,0.005933,-0.03128981,
380,0.00206793,0.02530758,
381,0.01614958,-0.0377398,
382,-0.01585416,0.07895077,
383,-0.00034466,-0.02040854,
384,0.0176513,-0.07843379,
385,0.00379121,-0.0243967,
386,0.01371237,-0.08968434,
387,0.00312652,0.04054628,
388,-0.01447554,-0.03616423,
389,-0.00709006,-0.04977813,
390,-0.00694235,0.04404207,
391,0.0122599,-0.0400293,
392,-0.00219103,0.03574572,
393,0.00681926,-0.04155563,
394,-0.00002462,0.04290963,
395,-0.01745435,-0.04214647,
396,0.00177252,0.00475133,
397,-0.00450514,-0.0076809,
398,0.00411125,-0.07235308,
399,0.04251574,0.010512,
400,0.01265379,-0.00817326,
401,-0.00600686,-0.00777937,
402,-0.00846868,0.0436728,
403,-0.02097476,-0.01075818,
404,-0.00743472,-0.08303741,
405,0.03751823,-0.02072858,
406,-0.02850795,0.02417514,
407,-0.01102898,-0.03392397,
408,-0.00416049,0.02200873,
409,0.01395856,-0.02779402,
410,0.00834559,0.03000966,
411,-0.01041353,0.01504176,
412,0.00659769,-0.02624307,
413,0.03724743,-0.06245654,
414,0.01041353,0.02245186,
415,-0.01491867,-0.01088127,
416,-0.00251106,-0.01004425,
417,0.00103397,0.0337024,
418,0.01585416,-0.01196448,
419,0.03769056,-0.03229916,
420,-0.03018199,0.03505641,
421,-0.01942381,-0.0337024,
422,-0.0008124,-0.00064007,
423,0.01061047,-0.00354503,
424,-0.0022895,-0.02208258,
425,-0.00150171,0.05467717,
426,0.00251106,-0.04943347,
427,0.02255033,0.00440667,
428,0.00743472,-0.0005416,
429,0.00526831,0.03429324,
430,0.00032004,-0.00305266,
431,0.01164444,-0.00182175,
432,-0.00096011,-0.0349087,
433,0.0130723,-0.06910347,
434,0.01558336,-0.02368277,
435,-0.01703584,0.04539608,
436,0.0107828,-0.07639047,
437,0.0125307,-0.01073356,
438,-0.0102412,0.02725242,
439,-0.0093057,0.00002462,
440,-0.00770552,0.00548987,
441,-0.00630228,0.05960082,
442,-0.00435743,-0.05726208,
443,0.02853257,-0.0087641,
444,0.04546993,-0.00531755,
445,-0.02631692,-0.02476597,
446,0.00736086,-0.03084669,
447,-0.0261446,0.00268339,
448,0.00120629,0.03232378,
449,0.01555874,-0.0107828,
450,0.01450016,-0.00137862,
451,-0.00359427,-0.00536678,
452,0.00002462,-0.02740013,
453,0.00487442,0.0110536,
454,0.00580991,-0.03798598,
455,-0.01518947,-0.00514522,
456,0.00460362,-0.00817326,
457,-0.00007385,-0.00091088,
458,0.00327423,-0.00448052,
459,-0.00317576,0.01422936,
460,-0.01302306,-0.04817794,
461,0.00145248,-0.00891181,
462,-0.00605609,-0.00802555,
463,0.00748395,0.03148676,
464,0.01878374,-0.01597725,
465,-0.00339732,-0.05228919,
466,-0.01730664,-0.00556373,
467,0.00452976,-0.00014771,
468,0.01472172,-0.01149673,
469,0.02579994,0.01097975,
470,-0.00834559,0.01356466,
471,-0.00396354,-0.0359919,
472,0.02471674,-0.01413088,
473,0.00588377,-0.02171331,
474,-0.00765628,0.01755282,
475,-0.00785323,0.02533219,
476,0.00115706,0.01949767,
477,0.00681926,-0.01831599,
478,0.02119633,-0.06565691,
479,0.01038891,0.04325429,
480,-0.01654347,-0.02124556,
481,0.01048738,-0.01260455,
482,0.01733126,-0.03030508,
483,-0.02932035,0.01605111,
484,0.00145248,0.01838984,
485,-0.00967498,-0.00965036,
486,0.01189062,-0.02540605,
487,0.00374198,0.0179221,
488,-0.00974883,-0.03426862,
489,0.00078778,0.01543565,
490,0.03109287,-0.00470209,
491,0.02949268,-0.01164444,
492,-0.04224494,-0.00534216,
493,0.00460362,0.06969431,
494,0.0068685,-0.14116113,
495,0.00977345,-0.00445591,
496,0.02311655,-0.03353008,
497,-0.00829636,-0.02311655,
498,-0.01393394,0.01654347,
499,0.02269804,-0.01597725,
500,-0.00285572,0.01568183,
501,-0.02922188,0.0292465,
502,0.0040374,0.01504176,
503,0.01701122,0.00864101,
504,-0.00561296,-0.00253568,
505,-0.00965036,0.01368775,
506,0.01285073,0.02663696,
507,0.00450514,-0.04620848,
508,0.01558336,0.08448988,
509,0.00556373,-0.06334279,
510,-0.00315114,-0.04106326,
511,0.01565722,0.01142287,
512,0.00374198,-0.01127517,
513,-0.0144263,-0.01811904,
514,-0.00145248,0.02279651,
515,0.00268339,-0.03185603,
516,-0.00317576,-0.00204332,
517,-0.00401278,-0.0068685,
518,0.01356466,-0.00598224,
519,0.00544064,-0.03205298,
520,0.0187345,0.00901028,
521,-0.01770053,0.03764133,
522,0.00292957,0.0323484,
523,0.03121596,-0.00288034,
524,0.00152633,-0.02653849,
525,0.00105859,-0.00955189,
526,0.00137862,-0.0334316,
527,0.00204332,-0.02442132,
528,-0.00260954,-0.0025603,
529,-0.00999502,-0.03399782,
530,-0.00041851,0.01233375,
531,0.00723777,0.06161952,
532,-0.00288034,-0.05388938,
533,0.02562761,-0.01910377,
534,-0.00292957,0.00051698,
535,-0.02085167,0.00871487,
536,0.02390433,-0.01319539,
537,0.01861141,-0.00066469,
538,-0.00150171,0.00659769,
539,0.02988657,-0.02604612,
540,-0.02218106,-0.02808944,
541,-0.0008124,0.05253538,
542,0.01161982,-0.05775445,
543,0.00536678,0.01363852,
544,0.00236335,-0.01533718,
545,0.01061047,-0.01597725,
546,0.01127517,0.00300343,
547,-0.01152135,0.02508601,
548,0.00561296,-0.04126021,
549,-0.01435245,-0.02607074,
550,0.0079517,-0.03072359,
551,0.00275725,0.02808944,
552,-0.01811904,-0.07954161,
553,-0.00598224,0.05228919,
554,-0.00288034,-0.00928109,
555,0.00216641,-0.01841446,
556,0.01560798,-0.00536678,
557,0.01553412,0.00659769,
558,0.00224026,-0.03414553,
559,0.00128015,-0.00150171,
560,-0.0002708,0.05713899,
561,0.01632191,0.00137862,
562,-0.01622344,0.01277688,
563,0.00672079,-0.03727205,
564,-0.00376659,-0.01947305,
565,0.01356466,-0.02764631,
566,0.0040374,-0.00925647,
567,-0.01701122,0.01531256,
568,-0.00920723,-0.00568682,
569,-0.02218106,0.02099938,
570,0.0074101,-0.09081678,
571,-0.00854254,-0.00157557,
572,-0.00608071,-0.05179683,
573,0.00509598,0.00733624,
574,0.00841945,-0.01863603,
575,0.0115952,0.00376659,
576,-0.00315114,0.05369243,
577,-0.01198909,-0.03412091,
578,-0.01627267,-0.01824213,
579,0.00071393,-0.00546525,
580,-0.00125553,-0.01450016,
581,0.00017233,-0.00482518,
582,0.0125307,0.01541103,
583,0.01203833,0.00654846,
584,0.00214179,0.0020187,
585,0.00152633,-0.00371736,
586,-0.00556373,0.01656809,
587,0.01176753,-0.06245654,
588,0.0020187,-0.0331608,
589,0.01302306,0.00814865,
590,-0.02680929,-0.02063011,
591,-0.00179713,-0.0062038,
592,-0.00206793,-0.02282113,
593,-0.01080742,0.022378,
594,0.00300343,0.01659271,
595,0.00773013,0.02082705,
596,0.01250608,-0.05302774,
597,-0.00007385,0.00888719,
598,0.00317576,-0.04261422,
599,0.00278186,0.06075788,
600,-0.00669617,0.02161484,
601,0.00536678,0.00078778,
602,0.00167404,-0.00598224,
603,0.00470209,-0.03394859,
604,0.01642038,-0.0233135,
605,0.00182175,0.05049206,
606,-0.00014771,-0.02688314,
607,0.00642537,-0.01804519,
608,-0.01139826,-0.02565223,
609,0.00869025,0.01142287,
610,-0.00022156,-0.016445,
611,0.00716391,-0.0008124,
612,-0.00551449,0.03279153,
613,0.00731162,0.00585915,
614,0.0149679,-0.02114709,
615,-0.00292957,-0.00797632,
616,-0.01632191,-0.03362855,
617,-0.01250608,-0.02060549,
618,0.00777937,-0.01642038,
619,0.00901028,0.03749362,
620,0.0203593,-0.00583453,
621,-0.02235338,0.00039389,
622,0.00324961,-0.02567685,
623,0.01127517,0.00263415,
624,0.01302306,-0.02907417,
625,-0.0020187,0.00420972,
626,0.00312652,-0.01048738,
627,0.00950265,-0.02932035,
628,-0.00068931,-0.1152381,
629,-0.0002708,0.06730633,
630,-0.00248644,0.03884762,
631,0.00120629,0.01984232,
632,0.03244687,-0.02786788,
633,0.00241259,0.02589841,
634,-0.00263415,-0.0221072,
635,-0.01533718,0.01090589,
636,-0.00846868,0.00920723,
637,0.02402743,-0.03293924,
638,-0.00327423,0.0547264,
639,0.00004924,-0.00573606,
640,0.01358928,-0.01856217,
641,-0.00219103,-0.0385522,
642,0.00226488,0.02011312,
643,-0.01088127,-0.00834559,
644,0.00854254,-0.0107828,
645,0.00440667,-0.00878872,
646,0.02122094,-0.0181929,
647,-0.00987192,-0.00268339,
648,-0.00905952,0.00841945,
649,-0.01479558,0.0249383,
650,0.01789748,-0.08633625,
651,0.01831599,0.00521907,
652,0.00046775,-0.04753787,
653,0.00558835,-0.01789748,
654,-0.004579,0.00551449,
655,0.01942381,-0.00920723,
656,-0.01260455,0.01856217,
657,-0.01166906,0.02666158,
658,0.01011811,-0.01885759,
659,-0.00681926,-0.02567685,
660,0.00765628,-0.02644002,
661,0.004579,0.05947773,
662,0.01235837,-0.03845373,
663,0.0149679,-0.04436211,
664,0.01966999,0.02703085,
665,0.01287535,-0.02454441,
666,-0.00204332,0.04414055,
667,-0.0153618,-0.02112247,
668,0.00251106,-0.01363852,
669,-0.00999502,-0.00548987,
670,0.00556373,0.01947305,
671,-0.0190053,0.00721315,
672,0.0102412,-0.01656809,
673,0.0082225,-0.01826675,
674,0.00573606,-0.00755781,
675,-0.0074101,0.0675279,
676,-0.00622842,-0.09426333,
677,-0.00809941,-0.00507136,
678,0.010512,0.00782861,
679,0.01351543,0.03325928,
680,-0.00187099,-0.07476567,
681,0.00179713,0.044756,
682,0.01413088,-0.04522375,
683,-0.00891181,0.0053914,
684,0.01386008,-0.0349087,
685,0.01917763,-0.03677969,
686,-0.01558336,0.10169805,
687,-0.01595264,-0.02134404,
688,0.00273263,0.00199408,
689,0.02981272,-0.03850297,
690,0.01619882,0.01265379,
691,-0.0318068,-0.00416049,
692,0.02833562,-0.0074101,
693,-0.02220567,0.00573606,
694,-0.00827174,0.00893643,
695,-0.00093549,-0.08188035,
696,0.0130723,0.06984202,
697,-0.00285572,-0.12141728,
698,0.00140324,-0.03328389,
699,-0.02149174,-0.02636616,
700,0.01068433,-0.05322469,
701,-0.00347118,-0.02656311,
702,0.00130477,-0.06297352,
703,0.00398816,0.0121368,
704,0.00150171,0.00487442,
705,0.00679464,0.05580961,
706,0.00952727,0.00933032,
707,-0.0122599,-0.02267342,
708,-0.00211717,-0.01014272,
709,0.00366812,0.02442132,
710,0.00192022,0.01272764,
711,0.01888221,-0.00571144,
712,-0.00384045,-0.00546525,
713,0.01499252,-0.07390403,
714,0.01351543,-0.04091556,
715,0.0107828,0.02085167,
716,-0.01339234,-0.00472671,
717,-0.00169866,0.00051698,
718,0.0095765,-0.04249112,
719,-0.00100935,0.00551449,
720,-0.0107828,0.00654846,
721,-0.00349579,0.02432285,
722,0.00118168,-0.02454441,
723,0.01543565,0.0359919,
724,0.01260455,-0.03527797,
725,0.01405703,0.00728701,
726,0.00315114,-0.03426862,
727,0.02003927,0.05238767,
728,-0.00561296,-0.00182175,
729,-0.0093057,-0.08116642,
730,-0.0005416,-0.03136367,
731,-0.00130477,-0.09938393,
732,0.00317576,0.05864071,
733,0.00507136,-0.01976847,
734,0.01134902,0.00093549,
735,-0.01174291,-0.01516485,
736,-0.00556373,0.00987192,
737,-0.00388969,-0.00204332,
738,0.0076809,-0.03759209,
739,0.00401278,0.03549954,
740,0.01826675,-0.03670583,
741,-0.0130723,0.00059084,
742,-0.00076317,-0.01659271,
743,0.0181929,-0.03636118,
744,0.011866,0.01856217,
745,-0.01137364,-0.00743472,
746,-0.00130477,-0.03119134,
747,-0.00494827,0.04426364,
748,-0.00755781,-0.00007385,
749,0.00659769,0.00608071,
750,0.02865566,-0.05130446,
751,-0.00374198,-0.00901028,
752,0.02188564,0.01056124,
753,0.02296884,0.00100935,
754,-0.03702587,-0.00684388,
755,-0.01019196,0.02607074,
756,-0.00576067,-0.06016704,
757,-0.00105859,0.00905952,
758,0.01400779,-0.03338237,
759,0.0102412,-0.0572867,
760,-0.01799595,0.08175726,
761,0.00140324,0.00785323,
762,0.00265877,-0.04241727,
763,-0.00022156,0.0005416,
764,-0.00322499,0.06686321,
765,0.00288034,-0.01947305,
766,0.00361888,0.01277688,
767,0.00420972,0.01016734,
768,0.00940418,-0.02949268,
769,0.04773481,0.01541103,
770,-0.0121368,-0.03000966,
771,-0.00866563,-0.02811406,
772,-0.00007385,-0.05851761,
773,-0.02451979,0.02786788,
774,-0.00637613,-0.0130723,
775,0.00878872,-0.01541103,
776,-0.0062038,-0.01238299,
777,0.01019196,0.05423404,
778,-0.00573606,-0.00297881,
779,-0.00933032,0.0093057,
780,0.00817326,0.03604114,
781,0.00881334,-0.02193487,
782,-0.00100935,-0.10248583,
783,0.00009847,0.07464258,
784,0.01560798,-0.04300811,
785,0.00265877,0.03476099,
786,0.03431786,0.00891181,
787,-0.01381085,0.00748395,
788,-0.01314615,0.04645466,
789,0.01326924,-0.05541571,
790,0.01285073,-0.01890683,
791,-0.00162481,-0.00728701,
792,-0.00571144,-0.01614958,
793,-0.00253568,0.02107323,
794,-0.0095765,-0.02282113,
795,0.00992116,-0.00241259,
796,0.00864101,-0.01149673,
797,0.00288034,-0.02909879,
798,-0.00243721,-0.0087641,
799,-0.00216641,0.0487934,
800,0.01014272,-0.03037894,
801,0.01629729,0.01395856,
802,-0.01435245,-0.0646968,
803,-0.00248644,-0.04359895,
804,0.03732129,0.00017233,
805,-0.00477594,0.0136139,
806,-0.0053914,0.01339234,
807,-0.0033727,-0.03884762,
808,-0.00285572,-0.02676005,
809,0.00891181,-0.00285572,
810,-0.011866,-0.00782861,
811,-0.00231412,-0.00524369,
812,0.00967498,-0.00544064,
813,-0.00482518,0.12030946,
814,-0.01063509,-0.02629231,
815,0.01410627,-0.01651886,
816,0.00083702,0.01208757,
817,-0.00699159,0.01472172,
818,0.02518448,0.00211717,
819,0.0121368,-0.04354971,
820,-0.01696198,-0.06521378,
821,0.00598224,0.0133431,
822,0.00654846,-0.07094984,
823,0.02779402,-0.059847,
824,0.02119633,0.03564725,
825,-0.02914802,0.031536,
826,-0.01038891,-0.02986195,
827,0.01691275,0.01413088,
828,-0.01102898,-0.02838486,
829,-0.0096996,0.00470209,
830,0.01418012,-0.00396354,
831,0.02107323,-0.01962076,
832,0.00475133,-0.0079517,
833,-0.02245186,0.00519445,
834,0.01570645,0.0257507,
835,0.00925647,-0.02939421,
836,-0.00152633,0.01718355,
837,0.01373699,-0.09222002,
838,0.02296884,-0.04463291,
839,0.00189561,0.03650889,
840,0.00041851,-0.00871487,
841,-0.00130477,-0.01558336,
842,-0.01715893,0.01925148,
843,-0.00704082,0.02099938,
844,-0.00497289,0.00546525,
845,0.00177252,-0.00637613,
846,0.00224026,-0.00561296,
847,0.00859177,0.00056622,
848,-0.01634653,-0.01462325,
849,0.01275226,0.03104363,
850,0.00300343,-0.01905454,
851,0.00096011,0.00460362,
852,0.00064007,0.06432752,
853,0.00945341,-0.11363791,
854,-0.00288034,0.00475133,
855,0.00238797,0.03751823,
856,-0.00251106,0.03549954,
857,0.02053163,-0.01814366,
858,0.00802555,0.01750359,
859,-0.02040854,-0.01004425,
860,-0.01595264,-0.01196448,
861,0.01065971,-0.01198909,
862,-0.00514522,-0.00413587,
863,0.00366812,-0.00420972,
864,0.00514522,-0.004579,
865,-0.02550452,-0.00292957,
866,0.00014771,0.01486943,
867,0.00068931,-0.06481989,
868,0.00145248,-0.01838984,
869,0.00192022,-0.10086103,
870,-0.00009847,0.06797103,
871,0.0215656,0.00167404,
872,0.01277688,-0.0475871,
873,0.01142287,0.01445092,
874,0.00780399,-0.04239265,
875,0.00371736,-0.00999502,
876,0.00526831,-0.00460362,
877,0.00859177,-0.03217607,
878,-0.01573107,0.00519445,
879,0.00839483,-0.02434746,
880,0.00265877,0.021024,
881,-0.0017479,-0.04613463,
882,-0.00440667,-0.01479558,
883,0.01984232,-0.02976348,
884,-0.00856716,0.01548489,
885,-0.00411125,0.01373699,
886,0.0033727,-0.04015239,
887,0.01368775,0.03247149,
888,-0.00349579,0.03860144,
889,-0.01693737,-0.04182643,
890,0.00423434,0.01393394,
891,-0.00610533,0.02703085,
892,0.00004924,-0.02501216,
893,-0.00044313,-0.0130723,
894,0.01324463,0.05573575,
895,-0.01056124,0.01208757,
896,0.00039389,-0.06115177,
897,0.004579,-0.00507136,
898,0.00888719,-0.00499751,
899,-0.00206793,-0.0218364,
900,0.00140324,0.02909879,
901,0.0051206,-0.00785323,
902,-0.01447554,-0.03884762,
903,-0.00694235,-0.00878872,
904,0.00782861,-0.02772017,
905,-0.00167404,-0.04249112,
906,0.02065472,-0.04126021,
907,-0.00068931,0.04485448,
908,0.00699159,-0.01408165,
909,-0.01016734,-0.00317576,
910,-0.02373201,0.04458368,
911,0.00078778,-0.00792708,
912,0.0036435,-0.0031019,
913,-0.00662231,-0.08119104,
914,0.0181929,0.07771986,
915,0.00361888,-0.0400293,
916,-0.00723777,-0.01462325,
917,0.00349579,-0.03119134,
918,-0.00731162,-0.00989654,
919,-0.021024,0.00157557,
920,0.00573606,-0.02294422,
921,0.01093051,0.01484481,
922,0.0079517,-0.00140324,
923,0.00829636,-0.00844406,
924,0.00694235,-0.03722282,
925,0.00622842,0.07136835,
926,-0.01457401,-0.00137862,
927,0.00908414,0.02543067,
928,0.02845871,-0.02998505,
929,-0.01533718,-0.06324432,
930,-0.03530259,0.05039359,
931,0.01014272,0.03985697,
932,0.00339732,0.01506638,
933,0.00014771,-0.01578031,
934,-0.00989654,-0.04217109,
935,-0.00760704,-0.01688813,
936,-0.00216641,-0.00758243,
937,0.00433281,-0.00177252,
938,-0.00152633,0.00164942,
939,-0.00760704,0.00753319,
940,0.00376659,-0.02257495,
941,0.01041353,0.05484949,
942,0.00536678,-0.08042787,
943,0.00388969,0.03229916,
944,0.01100436,-0.02159022,
945,0.01287535,-0.02063011,
946,-0.00334808,-0.01511561,
947,0.00066469,-0.00150171,
948,0.00004924,0.02567685,
949,0.03818293,0.01925148,
950,0.00009847,0.0975868,
951,-0.02200873,-0.06661702,
952,-0.03010814,-0.00544064,
953,0.0121368,-0.02501216,
954,0.00408663,0.02451979,
955,-0.00782861,0.00999502,
956,0.00152633,0.02003927,
957,-0.01016734,-0.05031973,
958,-0.00797632,-0.00039389,
959,-0.00398816,0.01238299,
960,0.01750359,-0.05534186,
961,-0.00507136,0.01036429,
962,-0.00967498,-0.02528296,
963,0.00851792,-0.02882799,
964,0.00083702,-0.02274728,
965,0.005933,-0.01770053,
966,-0.00140324,0.03109287,
967,0.01336772,0.0536432,
968,0.03648427,-0.04810409,
969,-0.01713431,-0.00475133,
970,0.00625304,-0.00137862,
971,-0.00699159,-0.03488408,
972,0.01491867,0.02427361,
973,0.0076809,-0.00260954,
974,0.01979308,-0.03419477,
975,0.01654347,-0.01715893,
976,-0.02063011,0.02582456,
977,-0.02323964,-0.04844874,
978,-0.00765628,0.05765598,
979,0.0064746,0.00928109,
980,-0.00514522,-0.00891181,
981,0.00514522,0.01494329,
982,0.00371736,0.02483983,
983,-0.00059084,-0.02013774,
984,0.00034466,-0.04015239,
985,-0.00945341,0.02877875,
986,0.01472172,-0.04162948,
987,-0.00851792,-0.02579994,
988,-0.00435743,0.02705547,
989,-0.01580493,-0.03202836,
990,-0.00044313,-0.01179215,
991,0.00194484,0.00472671,
992,0.01450016,-0.04889187,
993,0.00302805,0.02784326,
994,0.01425398,-0.03367779,
995,0.00076317,-0.01979308,
996,-0.00760704,0.00526831,
997,-0.00841945,0.06873419,
998,0.00103397,0.0133431,
999,0.0068685,-0.02688314,
1000,0.01504176,-0.00497289,
1001,-0.01619882,0.0505413,
1002,-0.01265379,-0.00260954,
1003,0.00204332,0.02127018,
1004,0.01065971,-0.01289997,
1005,-0.00329885,0.03998006,
1006,-0.01004425,-0.01324463,
1007,0.00435743,-0.01614958,
1008,0.00733624,-0.05393862,
1009,0.01678966,0.00206793,
1010,-0.00526831,0.00088626,
1011,0.00177252,0.0181929,
1012,-0.00034466,0.03633656,
1013,-0.00374198,-0.02220567,
1014,-0.00558835,-0.02427361,
1015,0.00452976,-0.00514522,
1016,0.00630228,0.01376161,
1017,0.00625304,-0.0536432,
1018,-0.00526831,0.00278186,
1019,-0.00088626,-0.07757215,
1020,-0.00120629,0.11088066,
1021,-0.00839483,-0.01201371,
1022,0.010512,0.02109785,
1023,0.00150171,-0.02515987,
1024,0.03215145,-0.02173793,
1025,-0.0148202,0.05172297,
1026,0.00827174,-0.12158961,
1027,-0.00709006,-0.00679464,
1028,0.00211717,0.03879838,
1029,0.00305266,-0.05484949,
1030,0.00140324,0.03035432,
1031,-0.00226488,-0.00472671,
1032,-0.01952228,-0.02730166,
1033,0.00305266,0.01349081,
1034,0.00497289,0.00253568,
1035,0.01171829,0.03830602,
1036,-0.00413587,-0.02077782,
1037,0.00622842,0.02653849,
1038,0.00748395,0.01019196,
1039,0.00770552,-0.04108788,
1040,0.00268339,0.03916766,
1041,-0.00856716,-0.08165878,
1042,0.00937956,0.00937956,
1043,-0.00300343,-0.06718324,
1044,0.0067454,-0.0115952,
1045,0.00841945,0.03441633,
1046,0.01088127,-0.0087641,
1047,0.00635151,-0.01528794,
1048,0.00034466,-0.03424401,
1049,-0.00797632,-0.0115952,
1050,0.00448052,-0.03050203,
1051,0.00169866,-0.00945341,
1052,0.02188564,0.02225491,
1053,0.02764631,-0.00305266,
1054,0.00206793,-0.005933,
1055,-0.02045778,0.06974354,
1056,-0.00955189,-0.0048498,
1057,0.01898068,-0.00352041,
1058,0.03128981,-0.03559801,
1059,0.01558336,0.01088127,
1060,-0.02538143,0.05049206,
1061,-0.00470209,-0.037469,
1062,-0.01063509,-0.01299844,
1063,-0.00913338,-0.03663198,
1064,-0.00438205,0.05765598,
1065,-0.0031019,-0.00076317,
1066,-0.00329885,0.00743472,
1067,0.00814865,-0.00236335,
1068,-0.00600686,-0.00598224,
1069,0.00760704,-0.01688813,
1070,-0.00083702,0.01595264,
1071,0.00482518,-0.04901496,
1072,0.01430321,0.02255033,
1073,0.01494329,0.00617918,
1074,0.00462823,-0.03825678,
1075,0.00105859,-0.02680929,
1076,0.01740511,0.02127018,
1077,0.0062038,-0.02481521,
1078,-0.01171829,-0.01312153,
1079,-0.00411125,0.02491368,
1080,-0.02562761,-0.0093057,
1081,-0.022378,-0.03897071,
1082,0.00435743,0.04401746,
1083,0.00487442,-0.04241727,
1084,-0.00004924,0.00758243,
1085,-0.00199408,-0.07284544,
1086,0.01430321,-0.03264382,
1087,0.00007385,-0.00718853,
1088,0.00841945,-0.00450514,
1089,0.00817326,-0.02900032,
1090,0.00967498,-0.01467249,
1091,0.01930072,-0.01383546,
1092,0.00103397,0.00563758,
1093,0.02538143,-0.01011811,
1094,-0.00374198,0.01356466,
1095,-0.0172574,0.01061047,
1096,0.00187099,0.00231412,
1097,-0.00002462,-0.04859645,
1098,-0.01745435,-0.00091088,
1099,-0.02515987,-0.03904457,
1100,-0.0005416,0.02959115,
1101,0.00162481,0.05041821,
1102,-0.00396354,-0.1129486,
1103,-0.00396354,-0.00288034,
1104,0.02299346,0.00777937,
1105,-0.00051698,0.03732129,
1106,-0.00809941,-0.00374198,
1107,-0.00598224,0.0121368,
1108,0.00204332,-0.01565722,
1109,-0.00999502,-0.04884264,
1110,-0.01371237,0.03481023,
1111,0.00014771,-0.03018199,
1112,0.00669617,0.02306731,
1113,0.00472671,-0.00150171,
1114,0.02968963,0.0076809,
1115,-0.00728701,-0.02582456,
1116,-0.00433281,-0.02998505,
1117,-0.02579994,-0.00091088,
1118,-0.00118168,-0.01757744,
1119,0.01324463,-0.00558835,
1120,0.00199408,-0.04753787,
1121,-0.01824213,-0.03350546,
1122,-0.00371736,0.02939421,
1123,0.00558835,-0.02936959,
1124,0.0090349,-0.05443098,
1125,0.00987192,-0.01787286,
1126,-0.00497289,-0.01302306,
1127,-0.00231412,-0.00305266,
1128,0.00977345,0.01578031,
1129,-0.01260455,-0.0218364,
1130,-0.01262917,-0.02016236,
1131,0.00472671,-0.06334279,
1132,0.00361888,0.02378124,
1133,0.02176255,-0.00526831,
1134,0.01235837,-0.01853755,
1135,0.01454939,-0.03431786,
1136,-0.01745435,0.06774946,
1137,-0.01472172,0.01806981,
1138,-0.00056622,-0.04411593,
1139,0.00580991,0.00398816,
1140,0.00177252,-0.01418012,
1141,0.01285073,0.05928078,
1142,-0.00588377,-0.03998006,
1143,-0.0264154,-0.02429823,
1144,0.00194484,-0.00302805,
1145,0.00832097,-0.00994578,
1146,0.00475133,-0.06907885,
1147,-0.00679464,0.00130477,
1148,0.01826675,0.0062038,
1149,0.01799595,-0.02836024,
1150,0.02082705,0.01789748,
1151,0.0258738,0.00866563,
1152,-0.02848333,0.02971425,
1153,-0.00982269,0.00007385,
1154,-0.0068685,-0.0195469,
1155,-0.02109785,0.06607542,
1156,0.00189561,-0.01420474,
1157,0.03734591,-0.02171331,
1158,-0.00379121,-0.02085167,
1159,0.0039143,-0.01676504,
1160,-0.00610533,0.04116174,
1161,-0.00152633,-0.03968464,
1162,0.00637613,0.04601154,
1163,-0.00157557,0.00137862,
1164,0.00440667,-0.00236335,
1165,0.01777439,-0.03884762,
1166,-0.00253568,0.00056622,
1167,-0.00573606,-0.00967498,
1168,-0.0022895,0.03857682,
1169,0.01602649,-0.04005392,
1170,0.03067436,0.06612466,
1171,-0.03106825,-0.04746401,
1172,-0.01459863,0.0095765,
1173,0.00376659,-0.03057588,
1174,-0.00920723,0.05974853,
1175,0.00657308,-0.06447523,
1176,0.01841446,0.00194484,
1177,0.02730166,0.04583921,
1178,-0.00859177,-0.00019695,
1179,-0.00120629,-0.06029013,
1180,0.01851293,0.00425896,
1181,-0.00019695,0.01774977,
1182,-0.01080742,0.00649922,
1183,0.00736086,-0.02530758,
1184,0.00312652,0.0110536,
1185,0.01703584,-0.01299844,
1186,0.00238797,-0.01410627,
1187,-0.0138847,-0.00251106,
1188,0.00157557,-0.03276691,
1189,-0.00871487,-0.00315114,
1190,0.00300343,-0.04128483,
1191,-0.00206793,-0.04559303,
1192,-0.0031019,0.01605111,
1193,-0.0062038,0.01681427,
1194,0.02294422,-0.01331848,
1195,-0.02673544,-0.01799595,
1196,-0.01043814,-0.00558835,
1197,0.01171829,-0.00649922,
1198,-0.00413587,-0.02223029,
1199,0.00280648,-0.01319539,
1200,0.01934996,-0.01619882,
1201,-0.01511561,0.01740511,
1202,0.0320776,0.02296884,
1203,0.00236335,0.02259957,
1204,-0.02434746,-0.02311655,
1205,-0.00711468,-0.05713899,
1206,-0.01861141,0.005933,
1207,-0.00091088,-0.05356934,
1208,0.01166906,0.03439172,
1209,0.00347118,0.02799097,
1210,0.00317576,-0.00940418,
1211,-0.02791711,-0.02001465,
1212,0.02262418,0.09340169,
1213,0.01383546,-0.10246122,
1214,-0.01730664,-0.00376659,
1215,0.0121368,-0.00866563,
1216,0.00251106,-0.02392895,
1217,0.01422936,0.02676005,
1218,-0.00280648,-0.04150639,
1219,-0.01302306,0.05435713,
1220,0.01356466,-0.04236803,
1221,-0.0036435,-0.02011312,
1222,0.01176753,-0.03069898,
1223,0.00556373,-0.03623809,
1224,-0.02459365,0.03700125,
1225,0.00649922,-0.01627267,
1226,0.00278186,-0.00625304,
1227,-0.00128015,-0.03306233,
1228,0.00807479,0.01085665,
1229,-0.00893643,0.00366812,
1230,-0.00844406,-0.08892117,
1231,0.01851293,0.02311655,
1232,0.00489903,0.00637613,
1233,0.02370739,-0.04559303,
1234,-0.01787286,-0.01309692,
1235,0.01806981,-0.0814126,
1236,-0.01272764,0.047981,
1237,-0.01287535,-0.01090589,
1238,-0.00297881,-0.01843908,
1239,0.01122593,0.0090349,
1240,0.00204332,0.01075818,
1241,-0.01287535,-0.02282113,
1242,0.00482518,0.00748395,
1243,0.01755282,-0.02848333,
1244,-0.00605609,0.00100935,
1245,0.0010832,-0.02909879,
1246,-0.00568682,-0.00846868,
1247,0.00605609,0.01472172,
1248,-0.01100436,-0.01777439,
1249,0.02050701,-0.00524369,
1250,-0.00231412,0.0235843,
1251,-0.03160985,-0.03192989,
1252,0.01346619,-0.00723777,
1253,0.00433281,0.01065971,
1254,0.00608071,-0.02003927,
1255,-0.01245684,-0.04438673,
1256,-0.00608071,0.00248644,
1257,0.0008124,0.02779402,
1258,0.02971425,-0.00827174,
1259,0.00782861,-0.07826146,
1260,-0.01260455,0.09581428,
1261,0.02250109,-0.02481521,
1262,-0.0036435,0.02255033,
1263,-0.0096996,0.02267342,
1264,0.01814366,-0.01568183,
1265,-0.01339234,-0.03227454,
1266,-0.01097975,-0.01117669,
1267,0.01349081,-0.01546027,
1268,-0.00829636,-0.01555874,
1269,0.01001963,-0.0051206,
1270,0.00280648,-0.02306731,
1271,-0.01420474,0.01824213,
1272,-0.00076317,-0.01238299,
1273,0.00839483,-0.0022895,
1274,0.00743472,-0.00659769,
1275,-0.01127517,0.00071393,
1276,-0.01533718,-0.02127018,
1277,0.03244687,-0.00142786,
1278,0.00716391,-0.01898068,
1279,-0.01533718,0.01216142,
1280,0.02299346,0.00137862,
1281,-0.00189561,0.01031505,
1282,-0.02144251,0.0428604,
1283,-0.00206793,-0.0010832,
1284,0.02464288,0.00556373,
1285,0.0039143,0.02255033,
1286,-0.00120629,-0.0587638,
1287,0.00297881,-0.00312652,
1288,0.00728701,0.02274728,
1289,0.01191524,0.00507136,
1290,0.00388969,-0.01474634,
1291,0.01543565,-0.04140792,
1292,-0.03010814,0.02144251,
1293,-0.00841945,-0.02287037,
1294,0.02346121,-0.0303297,
1295,0.00103397,0.03217607,
1296,-0.01730664,-0.07072827,
1297,0.00241259,0.01410627,
1298,0.00561296,0.00723777,
1299,0.00802555,0.02161484,
1300,-0.00150171,-0.01848832,
1301,-0.00125553,0.02710471,
1302,0.03047741,-0.049335,
1303,-0.00891181,-0.05088595,
1304,0.01270302,-0.00428358,
1305,-0.00694235,-0.02715395,
1306,0.0146971,-0.00780399,
1307,-0.02415052,-0.02680929,
1308,-0.00179713,0.03562263,
1309,0.01048738,0.0090349,
1310,-0.00716391,0.01425398,
1311,-0.00521907,-0.01029043,
1312,0.00580991,-0.07863074,
1313,0.01664195,0.00758243,
1314,0.00226488,-0.00667155,
1315,-0.01322001,0.05546495,
1316,0.01336772,0.00103397,
1317,0.00711468,-0.04576535,
1318,0.00509598,-0.00718853,
1319,0.01893145,-0.03998006,
1320,0.01511561,0.00748395,
1321,-0.02557838,-0.0133431,
1322,-0.01573107,-0.0005416,
1323,0.01314615,-0.04108788,
1324,0.00684388,-0.04347585,
1325,-0.0087641,0.05088595,
1326,0.00649922,-0.00465285,
1327,-0.00721315,-0.00241259,
1328,0.02218106,-0.004579,
1329,-0.00243721,0.01302306,
1330,0.00059084,0.0308713,
1331,-0.01048738,-0.06334279,
1332,-0.0017479,0.0053914,
1333,0.00770552,-0.01971923,
1334,0.02528296,0.05393862,
1335,-0.01043814,-0.03673045,
1336,0.00654846,-0.01314615,
1337,0.01289997,-0.06070864,
1338,-0.02848333,0.0079517,
1339,-0.01762668,0.04822718,
1340,-0.00716391,0.01011811,
1341,0.01398317,-0.01075818,
1342,-0.00019695,-0.02257495,
1343,0.00736086,-0.00773013,
1344,0.01110284,-0.00965036,
1345,-0.00694235,-0.00642537,
1346,-0.02853257,0.03069898,
1347,0.01664195,-0.03333313,
1348,-0.0005416,-0.01701122,
1349,-0.0136139,0.00022156,
1350,0.01147211,0.03426862,
1351,0.00531755,0.01065971,
1352,-0.00413587,-0.03764133,
1353,0.02235338,-0.01757744,
1354,0.00521907,-0.01381085,
1355,0.0048498,0.02218106,
1356,0.00644999,-0.02395357,
1357,-0.01356466,0.01715893,
1358,-0.01166906,-0.05324931,
1359,0.00573606,-0.02087629,
1360,0.02279651,0.09492803,
1361,0.01294921,-0.01676504,
1362,-0.0187345,0.00585915,
1363,-0.02346121,0.02417514,
1364,0.01065971,-0.005933,
1365,-0.00009847,0.08109256,
1366,0.01314615,-0.02060549,
1367,-0.00974883,-0.0215656,
1368,0.02772017,-0.06223497,
1369,-0.00083702,-0.02530758,
1370,0.0005416,-0.02053163,
1371,0.01518947,0.02826177,
1372,0.0107828,-0.02774478,
1373,-0.00669617,-0.03562263,
1374,-0.01740511,-0.0094288,
1375,0.01349081,0.02353506,
1376,0.00497289,0.00177252,
1377,-0.00851792,-0.0564743,
1378,0.02582456,0.02919726,
1379,-0.01149673,0.06095482,
1380,-0.02922188,-0.06518916,
1381,-0.01546027,0.02077782,
1382,0.02213182,-0.02134404,
1383,-0.00940418,-0.02786788,
1384,0.00359427,-0.02599689,
1385,0.0008124,-0.05745903,
1386,0.00809941,-0.0130723,
1387,-0.00029542,0.0068685,
1388,-0.00844406,0.05443098,
1389,0.00519445,0.02685853,
1390,0.00979807,-0.00334808,
1391,0.02405204,-0.03485946,
1392,0.01767591,0.00083702,
1393,0.01432783,-0.04512528,
1394,-0.02629231,0.02557838,
1395,0.00078778,-0.06947274,
1396,0.00189561,-0.02134404,
1397,-0.00654846,0.03833064,
1398,0.01878374,0.01115207,
1399,-0.01297383,0.01627267,
1400,-0.00617918,-0.05691743,
1401,-0.00905952,0.01260455,
1402,0.0122599,-0.0362627,
1403,-0.00544064,-0.00248644,
1404,0.02639078,-0.00433281,
1405,-0.00563758,0.01713431,
1406,-0.01004425,0.05598193,
1407,-0.00731162,-0.00814865,
1408,0.00551449,-0.04342662,
1409,0.02213182,-0.00731162,
1410,0.02712933,-0.01004425,
1411,-0.00999502,0.00179713,
1412,-0.02410128,-0.02850795,
1413,-0.00477594,-0.01395856,
1414,-0.00076317,0.01381085,
1415,0.01147211,-0.02259957,
1416,0.00078778,0.01664195,
1417,0.00477594,-0.08156031,
1418,-0.00416049,0.03023123,
1419,0.00374198,0.05246152,
1420,0.00157557,-0.08170802,
1421,-0.00305266,0.02095014,
1422,0.00841945,-0.01080742,
1423,0.02383048,0.00568682,
1424,-0.00612995,-0.02727704,
1425,-0.00588377,0.00396354,
1426,0.00770552,0.00204332,
1427,0.02909879,-0.05159988,
1428,-0.01930072,0.00760704,
1429,-0.02594765,-0.02616921,
1430,0.00465285,-0.03018199,
1431,0.00526831,0.02853257,
1432,-0.00465285,-0.01176753,
1433,0.01991618,-0.04546993,
1434,0.00893643,0.04478062,
1435,-0.00359427,0.01282612,
1436,-0.00214179,-0.00502213,
1437,0.0010832,-0.04273731,
1438,-0.01093051,0.02698162,
1439,-0.00017233,-0.0067454,
1440,0.00420972,-0.01548489,
1441,0.00428358,-0.00386507,
1442,0.00152633,0.02845871,
1443,-0.00487442,0.02900032,
1444,-0.00945341,-0.03596728,
1445,0.02476597,-0.05878842,
1446,0.03722282,-0.01223528,
1447,-0.00022156,-0.02085167,
1448,-0.01531256,-0.00450514,
1449,-0.0107828,0.02033469,
1450,0.00950265,-0.05657277,
1451,-0.00017233,0.00413587,
1452,-0.00083702,-0.02528296,
1453,0.00563758,0.00317576,
1454,0.00844406,0.01053662,
1455,-0.00322499,-0.00179713,
1456,0.00913338,-0.03313618,
1457,0.00189561,0.0771044,
1458,-0.00354503,0.03055127,
1459,0.00834559,-0.07011282,
1460,0.00241259,0.00891181,
1461,0.00231412,-0.00989654,
1462,-0.00379121,-0.00103397,
1463,0.00531755,0.04404207,
1464,0.02626769,0.01619882,
1465,0.04384513,0.01437707,
1466,-0.00083702,-0.01102898,
1467,-0.00206793,-0.0451499,
1468,-0.03333313,0.01184139,
1469,0.01582954,-0.08146184,
1470,0.01824213,-0.00635151,
1471,-0.00273263,-0.00866563,
1472,-0.00797632,0.02405204,
1473,-0.01730664,-0.01425398,
1474,0.0064746,-0.05571113,
1475,-0.00278186,-0.00551449,
1476,-0.00977345,-0.02488907,
1477,0.01112746,0.01309692,
1478,0.00580991,-0.00100935,
1479,-0.01339234,0.02176255,
1480,0.0095765,-0.00290496,
1481,0.01430321,0.00955189,
1482,-0.0064746,-0.01418012,
1483,-0.00534216,-0.00428358,
1484,0.00585915,-0.01989156,
1485,0.00199408,0.00556373,
1486,0.03589343,0.04891649,
1487,-0.0053914,-0.06164413,
1488,-0.00396354,-0.0618657,
1489,-0.00128015,-0.04544532,
1490,-0.00908414,0.09288471,
1491,-0.00888719,0.02973886,
1492,0.00893643,-0.02983734,
1493,0.0130723,-0.03641041,
1494,0.00573606,-0.01368775,
1495,-0.00814865,-0.00204332,
1496,-0.00179713,-0.00979807,
1497,-0.00856716,0.01176753,
1498,-0.01678966,-0.00841945,
1499,-0.00285572,-0.00785323,
1500,0.00608071,0.00829636,
1501,0.00322499,-0.00814865,
1502,0.02163945,-0.03306233,
1503,0.01794671,-0.01373699,
1504,-0.00945341,0.01265379,
1505,0.01656809,-0.00526831,
1506,-0.01349081,-0.047981,
1507,-0.02336273,0.1696937,
1508,-0.00918261,0.00679464,
1509,-0.01122593,-0.06816797,
1510,-0.00642537,-0.03160985,
1511,0.01235837,0.00014771,
1512,-0.00347118,0.04574074,
1513,0.0148202,-0.04694703,
1514,-0.01592802,-0.0022895,
1515,0.00224026,-0.01964537,
1516,0.01275226,0.00482518,
1517,-0.00150171,-0.00349579,
1518,0.00199408,-0.03035432,
1519,-0.01211219,0.04386975,
1520,0.01019196,-0.00401278,
1521,0.00076317,0.01851293,
1522,0.00777937,0.00952727,
1523,0.00071393,-0.02085167,
1524,0.00866563,-0.01383546,
1525,0.02577532,0.03018199,
1526,0.02124556,-0.00809941,
1527,-0.03407168,0.00182175,
1528,-0.02287037,-0.1312892,
1529,0.01718355,0.0068685,
1530,-0.00600686,-0.00034466,
1531,-0.02636616,0.05393862,
1532,-0.01117669,-0.02188564,
1533,-0.00460362,-0.03271767,
1534,0.00428358,-0.0176513,
1535,-0.00192022,0.02279651,
1536,0.01445092,-0.00556373,
1537,0.0067454,-0.03956155,
1538,0.01285073,0.04094017,
1539,-0.0074101,-0.03008352,
1540,0.00083702,0.0017479,
1541,0.00152633,0.00315114,
1542,0.00206793,-0.01585416,
1543,0.00637613,0.02419975,
1544,0.03128981,-0.00691773,
1545,-0.0192761,-0.04399284,
1546,-0.00096011,-0.00226488,
1547,0.02964039,-0.01117669,
1548,-0.03197913,0.03756747,
1549,0.01299844,0.00224026,
1550,-0.0179221,-0.03119134,
1551,-0.00041851,0.03389935,
1552,0.00945341,-0.05125523,
1553,-0.0096996,0.08737022,
1554,-0.00888719,-0.00595762,
1555,-0.00691773,0.02515987,
1556,0.00445591,-0.02309193,
1557,0.00891181,-0.02629231,
1558,0.0204824,-0.00241259,
1559,-0.00440667,-0.03325928,
1560,-0.00327423,-0.03067436,
1561,0.00694235,0.00805017,
1562,0.0094288,-0.03449019,
1563,0.02626769,0.01548489,
1564,0.01454939,-0.01395856,
1565,-0.01875912,-0.01447554,
1566,0.01174291,0.00711468,
1567,0.00748395,-0.04384513,
1568,0.01806981,-0.0159034,
1569,0.00384045,-0.02998505,
1570,0.01019196,0.01898068,
1571,-0.00694235,0.02661234,
1572,-0.00263415,-0.0394877,
1573,-0.01952228,0.01610034,
1574,-0.01418012,-0.03244687,
1575,0.00004924,-0.00425896,
1576,0.00694235,-0.02875413,
1577,0.01868526,-0.01228451,
1578,-0.01001963,-0.00105859,
1579,-0.01196448,-0.03439172,
1580,0.00933032,0.02072858,
1581,0.00869025,-0.04532222,
1582,0.00371736,-0.01580493,
1583,-0.00502213,0.00896105,
1584,0.00285572,-0.01999003,
1585,0.00617918,-0.01683889,
1586,0.01393394,-0.05844376,
1587,0.00711468,0.11233314,
1588,0.00120629,-0.0338255,
1589,0.00189561,-0.10785262,
1590,-0.00440667,0.02213182,
1591,0.0115952,-0.00531755,
1592,-0.0175282,-0.03247149,
1593,-0.00231412,0.03444095,
1594,0.02195949,-0.00004924,
1595,-0.00846868,-0.0020187,
1596,-0.01026582,0.03082207,
1597,-0.01395856,-0.00691773,
1598,-0.00192022,-0.0942141,
1599,-0.00051698,0.01282612,
1600,0.01075818,0.0002708,
1601,0.0082225,-0.00612995,
1602,-0.01196448,0.01228451,
1603,0.01782362,-0.00856716,
1604,0.00987192,-0.03609038,
1605,-0.00470209,0.02255033,
1606,0.00526831,0.08055096,
1607,0.01782362,0.04155563,
1608,0.01381085,-0.06509069,
1609,-0.00521907,-0.0287049,
1610,-0.01016734,-0.0149679,
1611,0.00408663,-0.01393394,
1612,-0.0062038,0.07727673,
1613,0.00014771,-0.07518418,
1614,-0.00667155,-0.05223996,
1615,0.00009847,-0.00536678,
1616,0.02845871,0.01733126,
1617,-0.01459863,0.03552416,
1618,-0.00888719,-0.07695669,
1619,-0.01004425,0.07178686,
1620,0.0107828,-0.03658274,
1621,-0.0079517,0.0172574,
1622,0.01750359,0.02971425,
1623,0.01848832,0.01701122,
1624,-0.00728701,-0.03451481,
1625,-0.00573606,-0.00901028,
1626,0.0087641,0.00709006,
1627,-0.00625304,-0.00374198,
1628,0.00044313,0.01164444,
1629,-0.02845871,-0.00482518,
1630,0.01309692,-0.03498255,
1631,0.00046775,-0.00709006,
1632,0.00635151,0.04007853,
1633,-0.00243721,-0.01971923,
1634,-0.00014771,0.01619882,
1635,0.0064746,-0.00558835,
1636,-0.00349579,-0.05777907,
1637,0.00093549,-0.01312153,
1638,0.01979308,0.00992116,
1639,0.00753319,0.01093051,
1640,-0.00950265,-0.01075818,
1641,-0.01063509,-0.00297881,
1642,-0.00009847,-0.00472671,
1643,0.00433281,-0.0033727,
1644,-0.0179221,-0.03276691,
1645,-0.00580991,-0.04586383,
1646,0.00115706,0.02981272,
1647,-0.00285572,-0.05324931,
1648,0.01016734,0.02552914,
1649,-0.01504176,0.03013276,
1650,-0.00416049,-0.04955657,
1651,0.00834559,-0.04133407,
1652,0.00280648,-0.0176513,
1653,0.00140324,0.06570615,
1654,0.00300343,-0.00945341,
1655,-0.00125553,0.01639576,
1656,0.01934996,-0.07018667,
1657,0.00733624,0.02427361,
1658,-0.02988657,-0.01080742,
1659,-0.00155095,-0.02432285,
1660,-0.00605609,-0.02589841,
1661,0.00669617,-0.00017233,
1662,0.01309692,-0.03303771,
1663,-0.00460362,0.0490642,
1664,-0.00290496,0.02299346,
1665,0.02796635,-0.06545996,
1666,-0.00846868,0.03707511,
1667,0.00748395,-0.02415052,
1668,-0.01053662,0.02257495,
1669,-0.00672079,-0.0051206,
1670,0.01302306,-0.00809941,
1671,-0.00300343,0.0258738,
1672,0.00452976,0.04121097,
1673,0.01878374,-0.02208258,
1674,0.02491368,0.0261446,
1675,-0.01905454,-0.04549455,
1676,-0.00608071,0.01937457,
1677,0.01804519,-0.02813868,
1678,-0.00248644,0.00642537,
1679,-0.00366812,-0.03872453,
1680,-0.0161742,0.00241259,
1681,-0.00334808,0.01312153,
1682,0.00536678,-0.031536,
1683,0.00489903,-0.03813369,
1684,0.01373699,-0.00002462,
1685,0.0039143,-0.01949767,
1686,-0.00039389,-0.0266862,
1687,0.00940418,0.0095765,
1688,-0.01147211,-0.0181929,
1689,-0.0192761,-0.00568682,
1690,-0.00009847,-0.00034466,
1691,0.00440667,-0.00612995,
1692,0.01893145,-0.00386507,
1693,-0.0031019,0.01701122,
1694,0.03276691,-0.00477594,
1695,-0.00977345,-0.03702587,
1696,-0.02195949,0.00706544,
1697,0.00125553,0.0074101,
1698,-0.00844406,-0.06024089,
1699,0.01289997,0.07811375,
1700,0.01208757,-0.04559303,
1701,-0.00782861,0.00509598,
1702,-0.0095765,-0.01518947,
1703,0.02282113,0.01393394,
1704,-0.01363852,-0.00777937,
1705,0.00128015,-0.04054628,
1706,-0.00150171,0.06218574,
1707,-0.01533718,0.02848333,
1708,0.00182175,-0.00773013,
1709,0.01715893,-0.04903958,
1710,0.00130477,0.03128981,
1711,-0.00329885,-0.02754784,
1712,0.00807479,-0.02417514,
1713,0.01486943,0.00211717,
1714,0.02072858,-0.01312153,
1715,-0.00204332,0.02112247,
1716,-0.00236335,0.01221066,
1717,0.00465285,0.01856217,
1718,-0.00014771,-0.00662231,
1719,0.00617918,-0.04150639,
1720,0.01356466,-0.00322499,
1721,-0.02407666,0.00667155,
1722,-0.01356466,-0.05184606,
1723,0.00649922,0.03830602,
1724,-0.0025603,0.04416517,
1725,0.01014272,-0.06787255,
1726,0.00891181,-0.02902493,
1727,0.00253568,-0.01937457,
1728,0.00989654,-0.03350546,
1729,0.00585915,0.01408165,
1730,0.00728701,0.03515488,
1731,0.01294921,-0.044756,
1732,0.01004425,-0.01174291,
1733,0.02343659,-0.00317576,
1734,-0.0243967,-0.00583453,
1735,-0.01457401,-0.01208757,
1736,-0.00773013,0.06218574,
1737,-0.00952727,0.00317576,
1738,-0.00371736,-0.03013276,
1739,0.00416049,0.00204332,
1740,0.00290496,-0.03707511,
1741,0.00155095,0.00588377,
1742,0.0192761,-0.05029511,
1743,0.01386008,-0.01001963,
1744,0.00731162,-0.00583453,
1745,-0.01664195,0.02306731,
1746,-0.00706544,-0.01238299,
1747,0.01127517,-0.01179215,
1748,0.02001465,-0.05041821,
1749,-0.00487442,-0.01688813,
1750,-0.01016734,0.03217607,
1751,0.004579,0.00854254,
1752,0.01750359,0.0079517,
1753,0.00300343,0.00834559,
1754,-0.02789249,-0.02525834,
1755,-0.00164942,-0.00105859,
1756,-0.00216641,-0.00933032,
1757,0.00305266,-0.00206793,
1758,0.00507136,0.00302805,
1759,0.00155095,-0.04549455,
1760,-0.00322499,0.00925647,
1761,0.01878374,0.02971425,
1762,-0.00137862,-0.03714896,
1763,0.00617918,-0.01683889,
1764,-0.00731162,0.06137333,
1765,-0.0053914,-0.02877875,
1766,0.00475133,-0.00312652,
1767,0.00241259,-0.03271767,
1768,-0.00032004,0.04926115,
1769,0.01605111,-0.00352041,
1770,-0.00150171,-0.01632191,
1771,0.01580493,-0.01681427,
1772,0.01211219,-0.05721285,
1773,-0.01134902,0.04583921,
1774,-0.00839483,-0.0008124,
1775,0.00019695,-0.01189062,
1776,-0.02193487,-0.0125307,
1777,0.0110536,0.01794671,
1778,0.01506638,-0.0338255,
1779,-0.00044313,0.02186102,
1780,-0.00598224,0.04027548,
1781,0.01211219,-0.01203833,
1782,0.0010832,-0.03860144,
1783,0.004579,-0.00100935,
1784,-0.00017233,0.03867529,
1785,0.00937956,0.01799595,
1786,0.01733126,-0.03697663,
1787,0.00214179,-0.02028545,
1788,0.02515987,-0.01260455,
1789,0.01285073,-0.03227454,
1790,-0.00526831,-0.01794671,
1791,-0.00573606,-0.04404207,
1792,0.0094288,0.03973388,
1793,-0.0036435,0.00359427,
1794,0.0040374,-0.01531256,
1795,0.02471674,0.00066469,
1796,0.0074101,-0.00039389,
1797,0.00164942,-0.02981272,
1798,0.01228451,-0.0357211,
1799,-0.03217607,0.00829636,
1800,-0.00679464,0.03362855,
1801,-0.00182175,0.06637084,
1802,0.02003927,-0.08365286,
1803,0.01506638,-0.12451918,
1804,-0.00814865,-0.02922188,
1805,0.0082225,0.01984232,
1806,0.00844406,0.00379121,
1807,-0.00706544,-0.00499751,
1808,-0.00204332,-0.01915301,
1809,0.01238299,0.00088626,
1810,-0.0090349,0.01371237,
1811,0.01664195,-0.03045279,
1812,0.00113244,0.05960082,
1813,0.01989156,-0.01491867,
1814,-0.03685354,-0.00435743,
1815,-0.01221066,-0.00334808,
1816,0.01794671,-0.0153618,
1817,-0.00814865,0.01450016,
1818,0.01804519,0.03131443,
1819,-0.00841945,-0.01100436,
1820,0.00669617,-0.01122593,
1821,-0.00096011,0.02555376,
1822,-0.00827174,0.00398816,
1823,0.00743472,-0.03328389,
1824,-0.01265379,-0.00334808,
1825,0.00706544,-0.00398816,
1826,0.01363852,0.04625772,
1827,0.00100935,-0.04977813,
1828,-0.00588377,0.00992116,
1829,0.02341197,-0.02259957,
1830,0.00096011,-0.04465753,
1831,-0.00334808,0.0048498,
1832,0.01201371,-0.03567186,
1833,0.00164942,-0.011866,
1834,0.01565722,-0.00982269,
1835,0.00120629,-0.02959115,
1836,-0.02392895,0.0172574,
1837,-0.00548987,0.00002462,
1838,0.01614958,0.05376629,
1839,0.01413088,0.01688813,
1840,-0.02247648,-0.01068433,
1841,-0.0048498,-0.00078778,
1842,-0.00662231,-0.00187099,
1843,0.01548489,0.00231412,
1844,-0.00096011,0.02693238,
1845,-0.00514522,-0.03476099,
1846,0.00807479,0.01824213,
1847,0.0148202,-0.02311655,
1848,-0.00605609,-0.02779402,
1849,-0.01068433,-0.00029542,
1850,0.00982269,-0.04908882,
1851,0.00339732,-0.02666158,
1852,0.0048498,-0.0203593,
1853,-0.00329885,-0.00612995,
1854,0.01149673,0.04300811,
1855,-0.00546525,-0.05049206,
1856,0.00236335,-0.00502213,
1857,0.00509598,0.0179221,
1858,-0.0039143,0.05937925,
1859,-0.01171829,-0.0419249,
1860,0.00162481,0.0181929,
1861,0.0136139,0.03035432,
1862,0.02442132,-0.04202338,
1863,-0.01228451,-0.01410627,
1864,-0.00376659,0.05664663,
1865,0.00137862,-0.03924151,
1866,-0.0062038,-0.02223029,
1867,-0.00841945,0.07107293,
1868,0.01971923,-0.02518448,
1869,-0.00662231,0.01080742,
1870,-0.01942381,0.02395357,
1871,0.01302306,-0.01755282,
1872,0.00832097,0.00657308,
1873,0.00805017,-0.02469212,
1874,-0.01890683,0.01541103,
1875,0.00014771,-0.01198909,
1876,0.00128015,-0.04027548,
1877,-0.00588377,-0.02661234,
1878,-0.0010832,0.00901028,
1879,-0.00231412,0.0204824,
1880,-0.00465285,-0.00157557,
1881,0.01504176,-0.02464288,
1882,0.00071393,0.03148676,
1883,-0.00322499,0.01632191,
1884,-0.00051698,0.01400779,
1885,0.01422936,0.01068433,
1886,-0.00790246,0.00083702,
1887,-0.00859177,-0.00782861,
1888,0.0082225,-0.03978312,
1889,0.02415052,0.01309692,
1890,-0.00933032,-0.01568183,
1891,-0.00881334,-0.01755282,
1892,0.0010832,-0.03658274,
1893,0.00563758,-0.00105859,
1894,0.0115952,0.02786788,
1895,0.02112247,-0.02922188,
1896,-0.01794671,-0.02058087,
1897,0.00352041,-0.0110536,
1898,0.00612995,-0.02077782,
1899,-0.01235837,0.08867499,
1900,0.02016236,-0.02740013,
1901,0.01093051,-0.05962544,
1902,0.00315114,0.02343659,
1903,-0.0107828,-0.00832097,
1904,0.00790246,-0.04372204,
1905,0.01592802,-0.00285572,
1906,-0.0192761,-0.00524369,
1907,-0.01693737,0.01061047,
1908,-0.0053914,-0.02895108,
1909,0.00598224,-0.02577532,
1910,0.01176753,0.03296386,
1911,0.00534216,-0.02255033,
1912,0.0095765,-0.02419975,
1913,0.00974883,0.03530259,
1914,-0.01053662,-0.00438205,
1915,0.00169866,0.03313618,
1916,0.01560798,-0.03106825,
1917,-0.00248644,-0.00832097,
1918,0.01639576,-0.03466252,
1919,0.02629231,0.02205796,
1920,0.00440667,-0.06772485,
1921,-0.03357931,-0.00327423,
1922,0.00711468,0.00423434,
1923,0.00425896,-0.01642038,
1924,-0.01715893,-0.05226458,
1925,-0.00349579,0.01459863,
1926,-0.00292957,0.01745435,
1927,-0.00093549,-0.01422936,
1928,0.00748395,-0.01634653,
1929,0.01681427,-0.00524369,
1930,0.00452976,-0.01745435,
1931,0.00167404,-0.02082705,
1932,0.00285572,0.00088626,
1933,-0.00598224,0.03104363,
1934,0.00155095,0.04064475,
1935,0.00312652,-0.03537645,
1936,-0.00164942,0.05100904,
1937,0.02762169,-0.08980743,
1938,-0.01228451,-0.0002708,
1939,-0.01829137,-0.00797632,
1940,0.00600686,0.011866,
1941,0.01558336,0.00928109,
1942,-0.00563758,0.01250608,
1943,0.00157557,-0.04409131,
1944,0.01646962,-0.09401715,
1945,-0.00854254,0.04096479,
1946,-0.0022895,-0.02016236,
1947,0.00548987,0.01580493,
1948,0.00526831,-0.01472172,
1949,0.00275725,0.01203833,
1950,-0.00482518,0.01974385,
1951,-0.02107323,-0.03264382,
1952,-0.00371736,0.00167404,
1953,-0.00007385,0.01683889,
1954,0.02730166,0.00051698,
1955,0.01240761,-0.0487934,
1956,-0.02033469,0.01339234,
1957,-0.00635151,-0.03540106,
1958,0.00162481,0.01462325,
1959,0.01484481,0.00807479,
1960,-0.01043814,-0.00130477,
1961,0.00445591,0.00891181,
1962,0.00780399,-0.0346379,
1963,0.00765628,0.02557838,
1964,0.00152633,-0.00558835,
1965,0.00428358,0.03980773,
1966,0.02703085,-0.07855688,
1967,0.00487442,0.08564694,
1968,-0.00302805,-0.05031973,
1969,0.00580991,0.04113712,
1970,-0.00297881,-0.03082207,
1971,-0.022378,-0.01262917,
1972,0.0413833,0.02890184,
1973,-0.01349081,-0.09497726,
1974,-0.03325928,0.01789748,
1975,0.0010832,0.00888719,
1976,0.004579,-0.02090091,
1977,0.00915799,0.00093549,
1978,0.00039389,-0.02594765,
1979,-0.00536678,0.01208757,
1980,0.00164942,-0.00878872,
1981,-0.00285572,0.00755781,
1982,0.00610533,-0.06001933,
1983,-0.01201371,-0.06100406,
1984,0.0064746,0.03106825,
1985,0.00155095,-0.06100406,
1986,-0.00145248,0.01888221,
1987,-0.00194484,-0.00928109,
1988,0.01117669,-0.02983734,
1989,0.01462325,0.07082675,
1990,0.02250109,0.00438205,
1991,0.0306005,-0.01999003,
1992,-0.02328888,0.05443098,
1993,-0.031536,-0.02070396,
1994,0.00280648,-0.02968963,
1995,-0.0187345,-0.02198411,
1996,0.00290496,-0.02562761,
1997,0.03227454,0.0048498,
1998,-0.00278186,0.03210222,
1999,-0.00736086,-0.06445062,
2000,0.00462823,-0.02328888,
2001,0.00388969,-0.0231904,
2002,0.015091,0.02107323,
2003,0.00694235,0.00359427,
2004,-0.00150171,0.00302805,
2005,-0.00514522,0.02456903,
2006,0.00435743,-0.07528265,
2007,0.0062038,-0.02097476,
2008,0.01122593,-0.02712933,
2009,0.00829636,0.00083702,
2010,0.01198909,0.03082207,
2011,0.00224026,0.00145248,
2012,0.0033727,-0.05167374,
2013,0.01683889,0.05696666,
2014,0.00987192,-0.04938424,
2015,-0.00721315,0.0176513,
2016,-0.00238797,-0.00797632,
2017,-0.01014272,-0.07045747,
2018,-0.00032004,0.03867529,
2019,-0.00736086,0.0181929,
2020,0.00142786,-0.00753319,
2021,0.00901028,-0.00179713,
2022,0.00514522,0.00155095,
2023,-0.00748395,-0.0261446,
2024,-0.01708508,-0.01863603,
2025,0.00551449,-0.02853257,
2026,0.0218364,0.04214647,
2027,0.01085665,-0.0632197,
2028,0.00164942,0.03281615,
2029,-0.00546525,-0.01585416,
2030,-0.00216641,-0.00502213,
2031,-0.00681926,-0.00901028,
2032,0.00933032,0.04734092,
2033,0.00248644,-0.02501216,
2034,0.02321502,-0.02159022,
2035,-0.01560798,0.00312652,
2036,0.00115706,0.00009847,
2037,-0.00278186,0.01676504,
2038,0.01602649,-0.0419249,
2039,0.02427361,-0.04266345,
2040,0.0025603,0.01531256,
2041,0.00002462,-0.02144251,
2042,-0.00044313,0.02171331,
2043,-0.00068931,-0.00568682,
2044,0.00765628,-0.02939421,
2045,-0.01656809,-0.05819758,
2046,-0.00302805,0.076292,
2047,-0.00088626,-0.01164444,
2048,0.02082705,-0.02269804,
2049,-0.0107828,-0.00945341,
2050,-0.00142786,-0.00965036,
2051,0.00361888,-0.01299844,
2052,0.0033727,-0.00489903,
2053,0.01164444,0.00814865,
2054,0.00773013,-0.02616921,
2055,-0.02373201,-0.06477065,
2056,-0.00637613,-0.00497289,
2057,0.00987192,-0.00718853,
2058,-0.01075818,0.03365317,
2059,0.01147211,-0.02678467,
2060,0.01161982,-0.01740511,
2061,0.0133431,-0.00440667,
2062,-0.01149673,0.00206793,
2063,-0.00994578,-0.07363323,
2064,0.00093549,0.04783329,
2065,-0.00994578,0.0366566,
2066,0.00236335,-0.01319539,
2067,-0.01080742,0.04342662,
2068,0.00465285,-0.02370739,
2069,-0.00608071,-0.01324463,
2070,0.00551449,0.03586881,
2071,0.00216641,-0.03244687,
2072,-0.0025603,-0.01339234,
2073,-0.00113244,-0.00465285,
2074,-0.00002462,0.06221035,
2075,0.00388969,-0.05036897,
2076,0.00120629,0.0221072,
2077,0.00371736,-0.00068931,
2078,0.00777937,-0.05423404,
2079,0.01880835,0.00667155,
2080,-0.00462823,0.04059552,
2081,0.01733126,-0.02688314,
2082,0.0008124,-0.0257507,
2083,-0.00856716,-0.02715395,
2084,0.00588377,-0.02370739,
2085,-0.02296884,-0.00056622,
2086,0.0020187,-0.06029013,
2087,0.02011312,0.02021159,
2088,0.011866,-0.02016236,
2089,-0.00179713,-0.01656809,
2090,-0.0068685,-0.04094017,
2091,0.0068685,0.01110284,
2092,0.01272764,-0.01129978,
2093,-0.00548987,-0.00324961,
2094,0.00827174,0.04817794,
2095,-0.0008124,0.00711468,
2096,0.00007385,0.02607074,
2097,0.00088626,-0.02213182,
2098,0.00760704,-0.02267342,
2099,0.03256996,0.02168869,
2100,-0.01294921,-0.01201371,
2101,-0.01336772,0.00324961,
2102,0.00472671,-0.06738019,
2103,0.00034466,0.01578031,
2104,-0.004579,-0.022378,
2105,-0.01521409,-0.04618386,
2106,0.00128015,0.03530259,
2107,0.00093549,0.02173793,
2108,0.01582954,0.03466252,
2109,-0.00573606,-0.02483983,
2110,-0.0036435,0.02656311,
2111,0.01191524,-0.00667155,
2112,0.00834559,-0.00753319,
2113,0.00694235,0.03500717,
2114,-0.01656809,-0.03082207,
2115,-0.00841945,0.01115207,
2116,-0.00669617,0.0246675,
2117,-0.00004924,0.00915799,
2118,0.02390433,0.01344157,
2119,-0.02168869,-0.03660736,
2120,0.02208258,0.02395357,
2121,-0.01063509,0.03328389,
2122,0.00605609,0.01324463,
2123,-0.00792708,-0.01582954,
2124,-0.00780399,-0.05484949,
2125,0.00113244,-0.00248644,
2126,0.00118168,-0.04379589,
2127,0.0040374,-0.02538143,
2128,0.00260954,0.00300343,
2129,-0.01597725,0.01233375,
2130,0.01651886,-0.04790714,
2131,-0.00600686,-0.01523871,
2132,0.0093057,0.00696697,
2133,0.00115706,-0.01851293,
2134,-0.00770552,-0.03860144,
2135,0.01486943,0.04305734,
2136,0.03739514,0.02808944,
2137,-0.02259957,0.04903958,
2138,-0.01004425,-0.05632659,
2139,-0.0192761,0.00265877,
2140,0.00694235,0.00521907,
2141,-0.00915799,0.01363852,
2142,-0.00433281,-0.10194423,
2143,0.00125553,-0.02011312,
2144,0.00696697,-0.02577532,
2145,0.01344157,-0.0444852,
2146,-0.00137862,0.0292465,
2147,-0.01016734,-0.04522375,
2148,0.00992116,-0.00359427,
2149,-0.00066469,0.0393646,
2150,0.0079517,0.01528794,
2151,0.01681427,-0.05359396,
2152,0.00206793,-0.02636616,
2153,0.00731162,-0.01479558,
2154,0.00733624,-0.06299814,
2155,0.00691773,-0.01085665,
2156,-0.01319539,-0.02747398,
2157,0.01164444,0.01408165,
2158,-0.00753319,-0.01558336,
2159,-0.0096996,0.00588377,
2160,0.02488907,-0.00132939,
2161,-0.02099938,0.01161982,
2162,0.00231412,-0.03530259,
2163,0.00408663,0.03057588,
2164,-0.02085167,-0.02813868,
2165,-0.00288034,0.00524369,
2166,-0.00260954,-0.05790216,
2167,0.00536678,0.02392895,
2168,0.01610034,-0.04867031,
2169,-0.01395856,0.02287037,
2170,-0.00329885,0.04453444,
2171,0.00263415,0.00056622,
2172,0.02380586,-0.04108788,
2173,0.00925647,0.03389935,
2174,-0.01176753,-0.0318068,
2175,0.01683889,-0.03082207,
2176,-0.00558835,-0.00684388,
2177,0.00226488,0.00265877,
2178,0.00684388,-0.04113712,
2179,0.00920723,0.07821223,
2180,-0.00238797,-0.0541848,
2181,-0.00275725,0.00236335,
2182,0.00649922,-0.01996541,
2183,0.01080742,0.0146971,
2184,-0.00706544,-0.01755282,
2185,-0.00317576,-0.03675507,
2186,-0.00002462,0.07087598,
2187,0.00118168,-0.04901496,
2188,-0.01516485,0.03481023,
2189,0.01344157,0.06262886,
2190,0.01398317,-0.06516455,
2191,0.01319539,-0.04034934,
2192,0.01272764,-0.04884264,
2193,-0.01282612,0.01558336,
2194,-0.01794671,-0.01553412,
2195,0.01701122,-0.00834559,
2196,-0.00482518,0.01289997,
2197,-0.01299844,-0.01026582,
2198,0.0161742,-0.01843908,
2199,0.01164444,-0.00544064,
2200,-0.00305266,0.00785323,
2201,0.00152633,-0.02983734,
2202,-0.00420972,0.03761671,
2203,0.00704082,0.00273263,
2204,-0.00546525,-0.0125307,
2205,-0.00182175,0.00435743,
2206,0.0005416,-0.03535183,
2207,0.00243721,-0.02863104,
2208,0.01272764,-0.021024,
2209,0.00322499,0.07415021,
2210,0.02368277,-0.00243721,
2211,-0.02882799,0.03010814,
2212,-0.01799595,-0.08586851,
2213,0.00189561,0.04551917,
2214,0.00445591,-0.02488907,
2215,-0.0010832,-0.00548987,
2216,0.00982269,-0.00177252,
2217,0.00105859,-0.05233843,
2218,-0.00797632,0.01211219,
2219,-0.01573107,0.00561296,
2220,0.00605609,0.01656809,
2221,0.00866563,-0.01863603,
2222,0.01804519,0.02259957,
2223,-0.01836523,-0.00091088,
2224,-0.00657308,-0.00039389,
2225,0.0051206,0.00718853,
2226,-0.01122593,0.03970926,
2227,-0.00007385,-0.0583699,
2228,0.01629729,-0.02988657,
2229,0.00204332,-0.03980773,
2230,0.00214179,0.02693238,
2231,-0.01437707,-0.00312652,
2232,0.00416049,0.03289,
2233,0.01491867,-0.07331319,
2234,0.01629729,-0.03431786,
2235,0.00342194,0.01511561,
2236,-0.01184139,0.02390433,
2237,-0.01029043,-0.005933,
2238,-0.01937457,-0.03037894,
2239,0.00398816,0.02946806,
2240,0.02368277,-0.0583699,
2241,-0.01718355,-0.01085665,
2242,-0.00162481,-0.03412091,
2243,-0.02353506,-0.0053914,
2244,-0.01959614,0.03613961,
2245,0.00977345,-0.02282113,
2246,0.00128015,-0.01782362,
2247,0.00807479,-0.00571144,
2248,-0.00411125,0.0053914,
2249,0.00440667,-0.0161742,
2250,0.01179215,0.00706544,
2251,-0.0062038,-0.07579964,
2252,-0.00051698,0.0068685,
2253,0.00445591,0.01703584,
2254,0.0079517,0.00032004,
2255,0.01068433,-0.01565722,
2256,-0.00556373,-0.00925647,
2257,-0.02013774,0.09867,
2258,0.00489903,-0.10209194,
2259,0.00398816,0.01102898,
2260,0.00056622,0.03687816,
2261,0.00583453,-0.04268807,
2262,0.00681926,-0.00361888,
2263,-0.00711468,0.02710471,
2264,0.00797632,-0.02599689,
2265,0.01122593,-0.02456903,
2266,0.00883796,-0.00118168,
2267,-0.01696198,0.03333313,
2268,0.00278186,-0.01829137,
2269,0.01383546,-0.01282612,
2270,0.0017479,0.00979807,
2271,0.00544064,-0.00982269,
2272,-0.00669617,0.05667124,
2273,-0.00497289,-0.00765628,
2274,-0.00322499,-0.07375632,
2275,-0.02045778,-0.00982269,
2276,0.00952727,-0.02223029,
2277,0.00219103,-0.0230427,
2278,-0.00556373,-0.00891181,
2279,-0.00182175,0.01326924,
2280,-0.01166906,-0.02533219,
2281,0.00649922,0.03259458,
2282,-0.00243721,-0.00078778,
2283,0.02442132,0.00352041,
2284,0.02050701,0.05423404,
2285,-0.00359427,-0.02735089,
2286,-0.01504176,0.10091027,
2287,0.02434746,-0.06021627,
2288,0.0175282,-0.03980773,
2289,-0.01208757,-0.03252073,
2290,0.01240761,-0.03596728,
2291,-0.00280648,0.02543067,
2292,-0.00945341,-0.02040854,
2293,-0.01056124,-0.04374666,
2294,-0.03350546,0.01287535,
2295,0.01947305,0.01688813,
2296,0.01454939,0.02885261,
2297,0.01518947,0.01065971,
2298,0.0176513,-0.01779901,
2299,0.01479558,-0.00115706,
2300,-0.01147211,-0.0230427,
2301,-0.01829137,0.02902493,
2302,0.01142287,-0.06408134,
2303,0.01595264,-0.06420443,
2304,-0.02823715,0.00760704,
2305,-0.03670583,-0.02213182,
2306,0.01902992,0.00925647,
2307,0.01068433,0.00268339,
2308,-0.00219103,-0.02296884,
2309,-0.00864101,-0.04795638,
2310,0.00359427,0.01026582,
2311,-0.00002462,-0.01868526,
2312,0.01090589,-0.03577034,
2313,0.01285073,-0.00411125,
2314,0.00068931,-0.03047741,
2315,-0.00782861,-0.00659769,
2316,-0.00140324,0.04293425,
2317,0.00450514,0.02026083,
2318,-0.01494329,0.07301777,
2319,-0.01065971,-0.08426832,
2320,0.00113244,0.03116672,
2321,0.0002708,-0.01779901,
2322,0.00883796,-0.05386476,
2323,0.02397819,0.03751823,
2324,-0.00955189,-0.03394859,
2325,-0.00807479,0.00901028,
2326,-0.0221072,-0.05371705,
2327,0.00120629,0.04975351,
2328,-0.00982269,-0.03584419,
2329,0.01733126,-0.01757744,
2330,0.01802057,-0.01934996,
2331,-0.00979807,-0.06336741,
2332,0.00612995,-0.00497289,
2333,0.01996541,-0.04724245,
2334,-0.01208757,0.00046775,
2335,0.01075818,-0.03156061,
2336,0.01504176,0.02124556,
2337,-0.00913338,0.01824213,
2338,0.01422936,-0.02853257,
2339,-0.01166906,-0.03276691,
2340,-0.00448052,-0.01531256,
2341,0.00411125,0.02582456,
2342,-0.00965036,0.09899004,
2343,0.00211717,0.0020187,
2344,0.02060549,-0.00915799,
2345,-0.01137364,-0.0033727,
2346,0.01568183,0.04032472,
2347,-0.00302805,-0.0020187,
2348,0.0102412,-0.09197384,
2349,0.00396354,0.03387473,
2350,-0.01299844,-0.01285073,
2351,-0.01467249,0.0459623,
2352,0.00366812,-0.09345093,
2353,0.00999502,-0.06361359,
2354,-0.00265877,0.06361359,
2355,0.00790246,0.00032004,
2356,0.01299844,0.05753288,
2357,0.00354503,0.03596728,
2358,-0.00046775,-0.08840419,
2359,0.00782861,0.04820256,
2360,0.01019196,-0.00790246,
2361,0.02513525,-0.00009847,
2362,-0.00014771,-0.03884762,
2363,-0.0040374,-0.01708508,
2364,0.00327423,-0.00268339,
2365,0.01733126,-0.03714896,
2366,0.01890683,0.03473637,
2367,-0.01878374,-0.04446059,
2368,0.010512,0.0655092,
2369,0.00211717,0.01605111,
2370,0.01523871,0.01543565,
2371,-0.00878872,-0.01669118,
2372,0.00278186,-0.00962574,
2373,0.0048498,0.01531256,
2374,0.00450514,-0.04322967,
2375,0.02434746,0.02151636,
2376,-0.0082225,0.00071393,
2377,0.00773013,-0.022378,
2378,0.01418012,-0.00632689,
2379,-0.00440667,0.04643005,
2380,-0.00236335,-0.09948241,
2381,0.01176753,0.07230384,
2382,0.02107323,-0.01565722,
2383,0.00182175,-0.02193487,
2384,-0.01558336,0.04042319,
2385,0.00854254,-0.15819697,
2386,0.00167404,0.08670553,
2387,0.00580991,-0.00893643,
2388,-0.00396354,0.00866563,
2389,-0.00384045,-0.01666656,
2390,0.01486943,-0.03116672,
2391,-0.00004924,0.01971923,
2392,0.00967498,-0.02107323,
2393,0.01223528,0.01122593,
2394,0.0033727,0.05851761,
2395,-0.00128015,-0.02353506,
2396,-0.00438205,-0.00600686,
2397,-0.02223029,-0.00273263,
2398,0.01336772,-0.02959115,
2399,-0.01386008,-0.06637084,
2400,0.031536,-0.03266844,
2401,-0.00583453,-0.04684856,
2402,0.00955189,-0.03266844,
2403,0.00371736,0.02451979,
2404,-0.00347118,0.01696198,
2405,-0.00354503,-0.00253568,
2406,-0.00285572,0.04027548,
2407,0.0022895,-0.07232846,
2408,0.00736086,-0.01425398,
2409,0.00401278,0.03190527,
2410,-0.00428358,-0.00635151,
2411,-0.01607573,0.00546525,
2412,0.02533219,-0.09271238,
2413,0.00519445,-0.02688314,
2414,0.004579,-0.00531755,
2415,0.01346619,0.0413833,
2416,0.00083702,-0.04697165,
2417,0.00829636,-0.015091,
2418,-0.01371237,-0.00445591,
2419,0.01395856,-0.12511002,
2420,-0.00118168,0.07978779,
2421,0.00132939,-0.01499252,
2422,0.00105859,-0.03197913,
2423,-0.00115706,-0.02186102,
2424,0.01075818,-0.07326395,
2425,0.00352041,0.00731162,
2426,-0.04384513,-0.05509568,
2427,-0.00792708,0.02491368,
2428,-0.01676504,0.05388938,
2429,0.01479558,-0.07407636,
2430,0.00832097,0.01986694,
2431,0.0074101,-0.04753787,
2432,0.00167404,0.04212185,
2433,0.01127517,-0.0529785,
2434,-0.00039389,0.07666128,
2435,0.00241259,-0.0615949,
2436,-0.00051698,0.01122593,
2437,-0.0040374,-0.06895576,
2438,0.01875912,0.02013774,
2439,0.00192022,0.01742973,
2440,0.00164942,-0.00150171,
2441,0.01152135,0.03636118,
2442,0.0036435,-0.03552416,
2443,0.01065971,0.00140324,
2444,-0.00462823,-0.0175282,
2445,0.00251106,-0.00748395,
2446,-0.00433281,-0.00128015,
2447,0.00324961,-0.05031973,
2448,0.00007385,0.03874915,
2449,0.00869025,-0.04130945,
2450,0.00568682,-0.01223528,
2451,-0.00755781,0.02986195,
2452,-0.01848832,0.00844406,
2453,-0.01445092,0.02097476,
2454,0.01085665,-0.0698174,
2455,0.0172574,-0.00411125,
2456,0.02151636,-0.01331848,
2457,0.0031019,-0.01368775,
2458,-0.01546027,-0.03247149,
2459,-0.01597725,0.00733624,
2460,0.00755781,0.05598193,
2461,0.0067454,-0.04746401,
2462,-0.01216142,0.05344625,
2463,0.02262418,-0.05142755,
2464,0.01610034,0.04281116,
2465,0.01324463,-0.04251574,
2466,-0.01541103,-0.02016236,
2467,0.01934996,-0.08638549,
2468,0.00797632,-0.00416049,
2469,0.00034466,0.01102898,
2470,0.00642537,0.02146713,
2471,-0.00433281,-0.00556373,
2472,0.01806981,0.02895108,
2473,0.00386507,-0.01319539,
2474,-0.00371736,-0.00408663,
2475,-0.00068931,0.00324961,
2476,-0.01395856,0.10226427,
2477,0.01814366,-0.04938424,
2478,0.00758243,-0.03306233,
2479,-0.00551449,-0.016445,
2480,0.00041851,-0.0502705,
2481,0.00413587,-0.07314086,
2482,0.00635151,0.03739514,
2483,0.00349579,0.01885759,
2484,0.00790246,0.01139826,
2485,-0.00637613,0.00290496,
2486,-0.00238797,0.02808944,
2487,-0.00452976,-0.03192989,
2488,0.00342194,-0.0048498,
2489,0.01349081,0.03781365,
2490,-0.02107323,-0.08252042,
2491,0.00371736,0.09608509,
2492,0.00169866,0.05061515,
2493,-0.00888719,0.0413833,
2494,-0.00595762,-0.0122599,
2495,0.0102412,-0.0570159,
2496,-0.00347118,-0.03466252,
2497,-0.00989654,0.04931038,
2498,-0.00115706,-0.03318542,
2499,-0.00248644,0.03658274,
2500,0.00349579,0.01270302,
2501,0.0176513,0.02311655,
2502,0.00551449,-0.03220069,
2503,-0.00883796,0.08380057,
2504,-0.016445,-0.1338495,
2505,-0.02774478,-0.11326863,
2506,0.03010814,0.01383546,
2507,0.00839483,0.04027548,
2508,0.02186102,-0.05585884,
2509,0.00044313,-0.03037894,
2510,-0.00288034,-0.02274728,
2511,-0.00721315,0.05275694,
2512,-0.00580991,0.00450514,
2513,0.01006887,0.00275725,
2514,0.00265877,0.03695201,
2515,-0.00546525,-0.02144251,
2516,0.01570645,-0.03092054,
2517,0.00866563,0.05923154,
2518,0.00760704,-0.01816828,
2519,0.01139826,-0.05137832,
2520,-0.00192022,0.00691773,
2521,0.00278186,0.03394859,
2522,-0.01277688,-0.03353008,
2523,0.00465285,-0.0308713,
2524,0.00118168,0.01127517,
2525,-0.00637613,-0.03269306,
2526,0.00066469,-0.0153618,
2527,-0.00068931,-0.04500219,
2528,0.01344157,0.03616423,
2529,0.00765628,0.00974883,
2530,0.01848832,-0.00785323,
2531,0.00548987,-0.02136865,
2532,-0.00470209,0.031536,
2533,0.00187099,-0.04546993,
2534,-0.00379121,-0.05002431,
2535,0.00243721,-0.00349579,
2536,0.00696697,0.07678437,
2537,-0.00585915,-0.0590346,
2538,0.02195949,0.03141291,
2539,-0.00494827,-0.05997009,
2540,-0.01740511,0.03609038,
2541,-0.00625304,-0.00420972,
2542,0.01117669,0.01816828,
2543,0.02090091,-0.11277627,
2544,0.01309692,-0.10002401,
2545,0.00696697,0.047981,
2546,-0.00440667,0.02727704,
2547,0.01031505,-0.00465285,
2548,-0.00128015,-0.0090349,
2549,-0.00711468,0.05595731,
2550,-0.00044313,0.00982269,
2551,-0.01088127,0.02836024,
2552,0.00164942,0.04318044,
2553,-0.0218364,-0.04965504,
2554,0.00132939,-0.03119134,
2555,0.00940418,0.00782861,
2556,-0.00546525,-0.00236335,
2557,-0.00162481,-0.04903958,
2558,0.00051698,0.07518418,
2559,-0.00610533,-0.04510066,
2560,0.00829636,-0.0048498,
2561,-0.00489903,0.03820755,
2562,0.00785323,-0.01479558,
2563,0.00809941,0.02442132,
2564,0.00568682,-0.03764133,
2565,-0.02323964,-0.02390433,
2566,-0.00361888,0.02287037,
2567,0.01014272,-0.04354971,
2568,0.0082225,-0.01806981,
2569,-0.00265877,0.03658274,
2570,-0.0062038,-0.00519445,
2571,-0.00844406,-0.05900998,
2572,0.01989156,0.11634592,
2573,0.00556373,-0.03788751,
2574,-0.00103397,0.0791231,
2575,0.02909879,0.01622344,
2576,-0.01607573,0.03638579,
2577,0.01565722,-0.03025585,
2578,0.00992116,0.04052166,
2579,0.02850795,-0.00475133,
2580,0.00952727,-0.06472142,
2581,0.00854254,0.02383048,
2582,0.01720817,-0.01614958,
2583,-0.00145248,-0.03808445,
2584,0.00760704,-0.00952727,
2585,0.00694235,-0.03069898,
2586,-0.00896105,-0.04694703,
2587,0.0025603,0.00452976,
2588,-0.00022156,-0.03414553,
2589,-0.01627267,0.03894609,
2590,0.01757744,0.00519445,
2591,-0.02095014,-0.06171799,
2592,-0.00691773,-0.00408663,
2593,0.01996541,-0.05100904,
2594,0.00206793,-0.01632191,
2595,0.00556373,-0.00571144,
2596,-0.01221066,0.02661234,
2597,0.00908414,-0.03749362,
2598,-0.01688813,-0.02565223,
2599,0.00502213,-0.03217607,
2600,0.00617918,-0.02144251,
2601,0.00610533,0.00374198,
2602,0.00622842,0.01890683,
2603,-0.00280648,-0.01774977,
2604,0.00841945,-0.02218106,
2605,0.0022895,0.02245186,
2606,0.00814865,-0.04266345,
2607,-0.00920723,-0.00113244,
2608,-0.0039143,0.04832565,
2609,-0.01937457,-0.02232877,
2610,-0.00657308,-0.07390403,
2611,0.00937956,-0.08434217,
2612,-0.0031019,0.09667592,
2613,-0.00733624,-0.05142755,
2614,0.01504176,0.05401247,
2615,0.00214179,-0.03121596,
2616,0.01011811,-0.04805485,
2617,-0.00076317,0.09581428,
2618,0.01299844,-0.06361359,
2619,0.01843908,0.00288034,
2620,-0.02045778,-0.02767093,
2621,-0.00600686,0.04116174,
2622,-0.00883796,-0.03168371,
2623,-0.02383048,-0.01265379,
2624,0.00032004,-0.08180649,
2625,-0.03535183,-0.01073356,
2626,0.04675008,0.08215115,
2627,0.01678966,-0.00782861,
2628,-0.01166906,0.04815332,
2629,0.00588377,-0.07774448,
2630,0.01235837,0.0121368,
2631,0.00893643,-0.04638081,
2632,0.01073356,0.07407636,
2633,-0.00595762,-0.02323964,
2634,-0.0082225,-0.00952727,
2635,-0.01294921,0.02390433,
2636,0.00164942,-0.05076286,
2637,0.01422936,-0.00206793,
2638,0.0008124,-0.03023123,
2639,-0.00071393,0.0087641,
2640,0.00805017,-0.03449019,
2641,-0.02085167,0.03966002,
2642,-0.00416049,-0.10295358,
2643,0.0187345,0.04428826,
2644,0.01880835,-0.0115952,
2645,0.01196448,-0.04773481,
2646,0.00002462,-0.04064475,
2647,-0.02220567,0.04453444,
2648,0.00851792,0.03160985,
2649,0.01930072,-0.03549954,
2650,-0.00068931,0.03712434,
2651,-0.01137364,-0.03035432,
2652,-0.00290496,0.03604114,
2653,-0.00231412,-0.0444852,
2654,0.00780399,-0.03591805,
2655,0.01573107,-0.0039143,
2656,-0.01006887,-0.0337024,
2657,-0.00059084,0.03222531,
2658,0.00743472,-0.04815332,
2659,-0.0017479,0.0308713,
2660,0.00243721,-0.0768336,
2661,-0.00856716,0.0002708,
2662,-0.00534216,0.02813868,
2663,-0.00068931,-0.06718324,
2664,-0.00206793,0.064426,
2665,0.00150171,-0.04091556,
2666,-0.00782861,0.04500219,
2667,0.03266844,0.09377097,
2668,-0.00285572,-0.0366566,
2669,-0.01191524,-0.01277688,
2670,-0.01371237,0.00487442,
2671,-0.00211717,0.04261422,
2672,-0.01090589,-0.02195949,
2673,0.00216641,0.01740511,
2674,-0.02097476,0.02422437,
2675,0.01324463,-0.02016236,
2676,0.00334808,-0.03586881,
2677,0.00354503,0.01654347,
2678,0.00317576,0.05997009,
2679,0.00115706,-0.08010783,
2680,-0.01208757,0.02188564,
2681,-0.00883796,-0.02087629,
2682,0.00359427,-0.0159034,
2683,0.00536678,0.01533718,
2684,-0.00243721,-0.02454441,
2685,0.01201371,0.07136835,
2686,-0.00977345,-0.05571113,
2687,-0.00278186,-0.0025603,
2688,0.00278186,0.0136139,
2689,-0.00955189,-0.05123061,
2690,0.01319539,0.04322967,
2691,0.01127517,0.00371736,
2692,0.00115706,-0.10159958,
2693,0.01971923,0.00834559,
2694,0.00844406,0.02336273,
2695,0.01410627,0.03035432,
2696,0.00965036,-0.02427361,
2697,-0.00699159,-0.00994578,
2698,0.00679464,-0.00583453,
2699,-0.02181178,0.02890184,
2700,-0.0107828,-0.02299346,
2701,0.00502213,-0.01947305,
2702,0.02058087,0.00433281,
2703,0.01619882,0.04089094,
2704,-0.02161484,0.07309163,
2705,-0.00827174,-0.05460331,
2706,-0.00130477,-0.02848333,
2707,0.00920723,-0.00361888,
2708,0.00630228,-0.02198411,
2709,0.00078778,0.04618386,
2710,0.00531755,-0.02710471,
2711,-0.0068685,0.01966999,
2712,0.00871487,0.18707419,
2713,-0.02028545,-0.02932035,
2714,0.01016734,0.00918261,
2715,-0.00187099,0.00460362,
2716,-0.00635151,-0.08399752,
2717,-0.00834559,-0.01718355,
2718,-0.00460362,0.00568682,
2719,-0.00883796,-0.01755282,
2720,0.02309193,-0.08175726,
2721,-0.00782861,0.03222531,
2722,-0.00317576,-0.05260923,
2723,-0.00413587,0.03584419,
2724,-0.00548987,-0.00187099,
2725,0.0115952,-0.02688314,
2726,0.00519445,-0.01381085,
2727,-0.00610533,0.01297383,
2728,-0.02269804,0.04519913,
2729,0.0017479,-0.03793675,
2730,-0.00780399,-0.01223528,
2731,0.00477594,0.03549954,
2732,0.01605111,-0.02801558,
2733,-0.00096011,-0.02001465,
2734,-0.00556373,-0.02242724,
2735,0.0172574,-0.0303297,
2736,-0.00588377,0.02218106,
2737,0.01043814,-0.07218075,
2738,0.00846868,0.02676005,
2739,0.02028545,-0.00864101,
2740,-0.01804519,-0.03269306,
2741,-0.00612995,0.03328389,
2742,0.00115706,-0.05019664,
2743,0.00366812,0.02976348,
2744,0.0068685,-0.01952228,
2745,0.00105859,-0.01100436,
2746,-0.01125055,-0.00580991,
2747,-0.00524369,0.01371237,
2748,0.01383546,0.0138847,
2749,0.01048738,0.14224433,
2750,0.02188564,-0.02262418,
2751,0.00526831,-0.03119134,
2752,-0.00925647,0.04537146,
2753,-0.02230415,-0.02429823,
2754,0.00265877,-0.00819788,
2755,0.00979807,0.01425398,
2756,0.00128015,-0.07863074,
2757,0.00300343,-0.06282581,
2758,0.00704082,0.0153618,
2759,-0.00273263,0.0593054,
2760,0.01068433,-0.12291899,
2761,0.01176753,0.04889187,
2762,-0.00790246,0.00598224,
2763,0.00637613,0.02961577,
2764,0.01676504,-0.00096011,
2765,-0.005933,-0.03072359,
2766,0.00974883,-0.01691275,
2767,0.00029542,-0.01016734,
2768,-0.0136139,0.02311655,
2769,-0.0175282,-0.01602649,
2770,0.01351543,-0.00851792,
2771,-0.00827174,0.01430321,
2772,-0.00125553,0.04175258,
2773,-0.00192022,-0.0888227,
2774,0.00888719,-0.02454441,
2775,-0.01056124,0.0159034,
2776,-0.00696697,-0.0230427,
2777,0.03540106,0.005933,
2778,0.00162481,-0.01137364,
2779,-0.00718853,-0.01715893,
2780,0.00462823,-0.02333811,
2781,-0.00162481,-0.05923154,
2782,-0.00937956,-0.02656311,
2783,-0.00088626,0.05470178,
2784,-0.00888719,-0.01462325,
2785,0.01085665,-0.0238551,
2786,0.00866563,-0.03623809,
2787,-0.00797632,0.0337024,
2788,-0.00571144,-0.04643005,
2789,-0.00709006,0.02161484,
2790,0.01629729,-0.03387473,
2791,-0.00157557,0.02151636,
2792,-0.00088626,0.00241259,
2793,0.0090349,-0.03062512,
2794,-0.00805017,-0.0533724,
2795,-0.00472671,0.00204332,
2796,-0.01506638,-0.04608539,
2797,0.00371736,0.09598661,
2798,-0.0175282,-0.09992553,
2799,-0.01430321,-0.08808415,
2800,0.00891181,0.01560798,
2801,0.02161484,0.015091,
2802,0.0200885,0.03510564,
2803,0.01250608,0.05339702,
2804,0.02090091,-0.16634561,
2805,-0.01755282,-0.03887224,
2806,0.01422936,-0.0076809,
2807,0.00595762,-0.02021159,
2808,0.00125553,0.01755282,
2809,0.01270302,-0.01555874,
2810,0.0115952,-0.05467717,
2811,-0.01097975,0.02146713,
2812,0.00571144,-0.03010814,
2813,0.00216641,-0.04325429,
2814,-0.01949767,0.03232378,
2815,0.01260455,0.03970926,
2816,-0.00334808,-0.02964039,
2817,0.01085665,-0.01270302,
2818,-0.01221066,-0.03057588,
2819,-0.00093549,-0.02939421,
2820,0.00113244,0.05411094,
2821,0.01543565,-0.02848333,
2822,0.01063509,0.02754784,
2823,-0.00132939,-0.04657776,
2824,0.00155095,0.03190527,
2825,0.00132939,-0.08695171,
2826,0.02112247,0.02471674,
2827,0.00548987,-0.0337024,
2828,-0.0048498,-0.01578031,
2829,0.00622842,-0.08057558,
2830,-0.00952727,0.06504145,
2831,-0.00019695,0.0146971,
2832,0.01090589,-0.03254535,
2833,-0.01285073,0.01122593,
2834,-0.01080742,0.02639078,
2835,0.00918261,-0.04396822,
2836,0.01634653,-0.01339234,
2837,0.00349579,-0.06083173,
2838,0.02666158,-0.00780399,
2839,0.00219103,-0.00908414,
2840,0.00780399,0.0252091,
2841,0.00019695,-0.00334808,
2842,-0.00088626,0.00472671,
2843,0.02796635,-0.03751823,
2844,-0.01592802,0.00009847,
2845,-0.02095014,-0.03357931,
2846,-0.04736554,-0.10260893,
2847,-0.00918261,-0.04670085,
2848,0.00977345,0.06484451,
2849,0.00563758,0.08461297,
2850,0.02872951,-0.10127954,
2851,-0.00032004,-0.00292957,
2852,0.02676005,0.02656311,
2853,0.0102412,-0.05172297,
2854,-0.02077782,-0.01610034,
2855,-0.02552914,0.05137832,
2856,0.00046775,0.00551449,
2857,-0.01043814,-0.0231904,
2858,-0.0010832,0.02033469,
2859,0.00612995,-0.01161982,
2860,0.00499751,-0.01738049,
2861,0.00460362,-0.04662699,
2862,0.00334808,-0.02619383,
2863,-0.0040374,0.00891181,
2864,-0.00322499,0.04638081,
2865,0.02218106,-0.04613463,
2866,0.01014272,0.03537645,
2867,0.00388969,-0.03525335,
2868,0.00893643,-0.04945809,
2869,0.00219103,-0.07506109,
2870,0.01531256,0.07353476,
2871,-0.01211219,0.04711936,
2872,-0.00128015,-0.05398785,
2873,0.00327423,-0.04795638,
2874,0.0122599,0.01838984,
2875,-0.00819788,0.00679464,
2876,0.0053914,-0.00371736,
2877,0.00100935,-0.00558835,
2878,-0.00253568,-0.00679464,
2879,-0.00878872,0.01912839,
2880,0.01546027,-0.00851792,
2881,-0.00317576,-0.03281615,
2882,-0.00280648,0.01910377,
2883,0.00349579,0.01324463,
2884,-0.01125055,0.05214148,
2885,0.01041353,-0.02767093,
2886,-0.0064746,0.06934965,
2887,0.00155095,-0.00588377,
2888,0.0187345,-0.03845373,
2889,0.00487442,-0.0416541,
2890,0.00169866,-0.00268339,
2891,-0.0362627,-0.03613961,
2892,-0.0125307,-0.03141291,
2893,-0.00519445,0.03707511,
2894,-0.01435245,-0.01029043,
2895,0.01811904,0.00807479,
2896,0.0221072,0.01656809,
2897,0.00199408,-0.058493,
2898,0.00502213,-0.01147211,
2899,0.00551449,-0.01890683,
2900,0.01740511,0.0020187,
2901,0.0031019,-0.00137862,
2902,0.02245186,0.00334808,
2903,-0.01430321,-0.02946806,
2904,-0.01947305,0.01184139,
2905,0.01036429,0.02700624,
2906,-0.0094288,-0.04790714,
2907,-0.01344157,-0.02429823,
2908,0.00288034,-0.01073356,
2909,0.01393394,0.00361888,
2910,0.00667155,-0.00612995,
2911,0.00915799,0.00785323,
2912,0.00105859,0.03325928,
2913,0.00667155,0.02058087,
2914,-0.00448052,-0.07387941,
2915,0.0005416,-0.01016734,
2916,0.00571144,-0.00189561,
2917,0.00002462,-0.05201839,
2918,-0.00420972,-0.03072359,
2919,-0.00302805,0.01688813,
2920,0.00315114,-0.00460362,
2921,-0.00253568,0.03362855,
2922,-0.00551449,0.00979807,
2923,0.01371237,-0.02011312,
2924,0.01085665,-0.02976348,
2925,-0.00662231,0.00580991,
2926,0.01363852,-0.00494827,
2927,-0.02218106,-0.00470209,
2928,0.01454939,0.01868526,
2929,-0.00699159,0.05512029,
2930,0.00841945,-0.13604053,
2931,0.00896105,-0.02348582,
2932,0.00093549,0.00059084,
2933,-0.00169866,-0.00945341,
2934,0.00844406,-0.01947305,
2935,0.00317576,-0.05750827,
2936,-0.00681926,0.05228919,
2937,0.00327423,0.02405204,
2938,0.00901028,-0.04980275,
2939,-0.00679464,-0.04721783,
2940,-0.00644999,0.03239764,
2941,0.01063509,-0.0371982,
2942,0.00499751,-0.02063011,
2943,0.00132939,-0.0544556,
2944,-0.0292465,-0.02717856,
2945,0.00531755,0.02562761,
2946,0.03380088,-0.05012279,
2947,-0.00182175,0.04921191,
2948,0.00696697,-0.0828897,
2949,0.00352041,0.00066469,
2950,0.00994578,-0.03195451,
2951,0.00556373,0.01592802,
2952,0.00032004,-0.04389437,
2953,-0.01048738,0.02476597,
2954,0.0064746,-0.03734591,
2955,0.00536678,-0.01228451,
2956,-0.00595762,0.01250608,
2957,-0.00177252,0.03911842,
2958,-0.00662231,0.01056124,
2959,-0.01642038,0.09214616,
2960,-0.00558835,-0.06329356,
2961,0.00718853,0.05455407,
2962,0.01026582,-0.05322469,
2963,0.00605609,-0.02786788,
2964,0.00219103,-0.00706544,
2965,0.00315114,0.00470209,
2966,0.00125553,0.00411125,
2967,0.00994578,-0.06262886,
2968,-0.00211717,0.03670583,
2969,0.00716391,-0.11198848,
2970,0.01297383,-0.03781365,
2971,0.01265379,0.08549923,
2972,-0.00982269,-0.09569119,
2973,-0.00785323,0.015091,
2974,-0.00731162,-0.03685354,
2975,0.01208757,-0.00096011,
2976,0.01065971,-0.02742475,
2977,-0.0005416,-0.04170334,
2978,0.00583453,0.00130477,
2979,0.0036435,-0.03252073,
2980,-0.00374198,-0.05196916,
2981,-0.0153618,0.00465285,
2982,-0.005933,0.05534186,
2983,0.01558336,0.00915799,
2984,0.02267342,-0.04842413,
2985,0.0231904,-0.02678467,
2986,-0.00017233,-0.06509069,
2987,-0.00955189,-0.07621815,
2988,-0.01336772,-0.04170334,
2989,0.00477594,0.04522375,
2990,0.00460362,-0.02402743,
2991,0.00448052,-0.02402743,
2992,-0.0020187,0.02050701,
2993,0.00785323,0.01127517,
2994,0.01506638,0.00748395,
2995,-0.02198411,-0.0238551,
2996,0.01272764,-0.01435245,
2997,-0.0025603,-0.05140294,
2998,0.00290496,0.07624276,
2999,0.00994578,-0.00605609,
3000,0.00137862,-0.00009847,
3001,0.00322499,-0.01580493,
3002,0.01272764,-0.03983235,
3003,-0.00182175,-0.05211687,
3004,0.00100935,0.01029043,
3005,-0.00179713,0.058493,
3006,-0.00785323,-0.00292957,
3007,0.01413088,-0.06607542,
3008,0.00851792,0.00785323,
3009,0.01947305,0.01693737,
3010,0.00423434,-0.00059084,
3011,0.00253568,-0.01233375,
3012,0.00354503,-0.0204824,
3013,-0.00219103,0.01312153,
3014,0.00189561,-0.01418012,
3015,0.00352041,-0.02173793,
3016,0.00699159,0.03924151,
3017,-0.01088127,-0.04859645,
3018,-0.02023621,-0.00411125,
3019,0.00817326,0.02378124,
3020,0.02259957,-0.00502213,
3021,0.01363852,0.06651855,
3022,-0.00608071,0.07109755,
3023,-0.03367779,-0.00561296,
3024,-0.00987192,-0.02119633,
3025,0.00901028,-0.03109287,
3026,0.01073356,-0.01216142,
3027,-0.00588377,-0.01349081,
3028,0.00078778,0.00792708,
3029,0.0005416,-0.02826177,
3030,0.00214179,-0.0031019,
3031,0.00169866,-0.00088626,
3032,0.00120629,0.02122094,
3033,0.00236335,-0.0238551,
3034,-0.00728701,0.07799066,
3035,0.0148202,-0.09458337,
3036,0.02119633,-0.06664164,
3037,-0.00982269,-0.01528794,
3038,0.02097476,-0.01134902,
3039,0.00544064,-0.05482487,
3040,-0.01811904,-0.01299844,
3041,-0.0074101,0.06555844,
3042,0.01233375,-0.03279153,
3043,-0.00672079,-0.02383048,
3044,0.00773013,0.00251106,
3045,-0.00398816,0.00509598,
3046,0.00608071,-0.0768336,
3047,-0.00162481,0.08975819,
3048,-0.03256996,-0.02311655,
3049,0.03860144,0.14985137,
3050,-0.00115706,0.01065971,
3051,0.02368277,-0.05763136,
3052,0.00339732,-0.08121565,
3053,-0.00179713,-0.07255002,
3054,0.00974883,-0.05118137,
3055,0.01260455,0.0148202,
3056,0.00265877,0.08323435,
3057,-0.00017233,0.03375164,
3058,-0.00243721,0.01216142,
3059,0.02417514,-0.00199408,
3060,-0.00753319,0.0377398,
3061,0.0062038,-0.04773481,
3062,-0.00226488,-0.00709006,
3063,-0.01708508,-0.03330851,
3064,0.00039389,0.01838984,
3065,0.01393394,0.03252073,
3066,0.00918261,-0.00531755,
3067,-0.01065971,-0.03252073,
3068,0.00460362,0.0456915,
3069,0.00989654,-0.02383048,
3070,0.00711468,-0.01437707,
3071,0.00817326,0.01642038,
3072,-0.00460362,0.02444594,
3073,0.00632689,-0.14566627,
3074,0.00044313,-0.07306701,
3075,0.02095014,0.05745903,
3076,-0.02607074,-0.0053914,
3077,0.0153618,-0.09076754,
3078,0.004579,-0.03658274,
3079,-0.01888221,-0.02616921,
3080,0.00157557,0.02752322,
3081,-0.00374198,0.04867031,
3082,0.00937956,0.0067454,
3083,0.01925148,-0.04145716,
3084,-0.01349081,0.05004893,
3085,0.00999502,0.0462331,
3086,0.00009847,-0.00103397,
3087,0.02636616,0.01787286,
3088,-0.00285572,-0.07855688,
3089,0.00002462,0.088158,
3090,0.00521907,-0.047981,
3091,-0.00893643,-0.02173793,
3092,0.0067454,-0.1083696,
3093,0.00157557,-0.07875383,
3094,0.00691773,0.11838923,
3095,0.01851293,0.03259458,
3096,0.00103397,0.00642537,
3097,-0.03259458,-0.0148202,
3098,-0.0082225,-0.01198909,
3099,-0.00920723,-0.02676005,
3100,-0.01651886,-0.004579,
3101,-0.02907417,0.09938393,
3102,0.02555376,-0.01102898,
3103,0.0053914,-0.09241696,
3104,-0.00891181,0.02346121,
3105,0.01149673,-0.00428358,
3106,-0.00251106,-0.0266862,
3107,-0.00088626,0.01622344,
3108,0.0068685,-0.03833064,
3109,0.00265877,-0.06088097,
3110,-0.00032004,0.00782861,
3111,0.00699159,0.01233375,
3112,0.00605609,-0.02023621,
3113,0.00248644,-0.02949268,
3114,0.00408663,0.01543565,
3115,-0.00288034,-0.02949268,
3116,0.01125055,-0.05051668,
3117,-0.01893145,0.0556619,
3118,0.01014272,-0.03584419,
3119,0.00905952,-0.03685354,
3120,0.01166906,0.01787286,
3121,0.00679464,-0.05706514,
3122,0.01666656,0.08330821,
3123,-0.00878872,-0.01504176,
3124,-0.00637613,0.14522314,
3125,-0.01349081,-0.17033377,
3126,0.02262418,0.15654754,
3127,0.03547492,-0.22025961,
3128,0.01336772,0.04153101,
3129,0.0115952,0.01349081,
3130,0.0252091,-0.07050671,
3131,-0.00534216,-0.00071393,
3132,-0.0074101,-0.03394859,
3133,0.0082225,0.02176255,
3134,-0.0094288,0.0380106,
3135,0.00782861,-0.01201371,
3136,-0.00071393,-0.00805017,
3137,-0.01499252,0.0791231,
3138,-0.00169866,-0.03781365,
3139,0.01324463,-0.00519445,
3140,0.00125553,-0.01966999,
3141,0.016445,-0.04699627,
3142,-0.00608071,0.08621316,
3143,0.01297383,0.06531226,
3144,-0.00263415,0.04226956,
3145,0.01129978,0.01346619,
3146,0.00019695,0.01110284,
3147,-0.0090349,-0.02343659,
3148,0.00118168,-0.02159022,
3149,0.00100935,-0.01260455,
3150,0.00150171,-0.01580493,
3151,0.01376161,-0.01011811,
3152,-0.0149679,0.06479527,
3153,-0.00440667,-0.05918231,
3154,0.01080742,0.00644999,
3155,0.01061047,-0.12188503,
3156,0.00285572,0.08983205,
3157,0.01651886,0.021024,
3158,-0.00411125,-0.01043814,
3159,-0.01745435,0.05110752,
3160,0.00546525,0.09345093,
3161,-0.0062038,0.03308695,
3162,0.00268339,-0.0287049,
3163,0.01395856,0.02767093,
3164,0.00155095,0.02410128,
3165,0.00401278,0.0074101,
3166,0.00644999,0.00755781,
3167,-0.0218364,0.02624307,
3168,-0.00300343,-0.09436181,
3169,0.0082225,-0.01632191,
3170,0.00088626,-0.09992553,
3171,0.0133431,0.12119572,
3172,0.00866563,-0.06760175,
3173,0.01838984,0.04618386,
3174,-0.00199408,-0.03842911,
3175,0.00610533,0.021024,
3176,0.01285073,0.03874915,
3177,0.01885759,0.02045778,
3178,0.00068931,-0.09340169,
3179,-0.00076317,-0.03023123,
3180,0.01196448,0.00278186,
3181,-0.01422936,-0.00182175,
3182,-0.00883796,-0.08668091,
3183,0.00329885,0.05708975,
3184,0.0053914,-0.04611001,
3185,0.02294422,0.00817326,
3186,-0.00669617,0.03601652,
3187,-0.00785323,0.01863603,
3188,-0.010512,-0.08180649,
3189,0.00805017,-0.01019196,
3190,0.00672079,-0.08178187,
3191,0.00091088,0.03687816,
3192,0.00839483,-0.12855658,
3193,0.00933032,0.04044781,
3194,-0.00526831,-0.00206793,
3195,0.00694235,0.0031019,
3196,0.0074101,-0.01546027,
3197,-0.00182175,-0.01521409,
3198,-0.00896105,0.01738049,
3199,-0.0094288,-0.01646962,
3200,-0.00039389,-0.05130446,
3201,0.00260954,0.02993581,
3202,0.01164444,-0.01580493,
3203,-0.00071393,0.03276691,
3204,0.00268339,-0.04588844,
3205,0.00556373,-0.04522375,
3206,-0.00292957,-0.12931974,
3207,-0.01344157,-0.02070396,
3208,0.02309193,0.05704052,
3209,-0.01373699,-0.06742943,
3210,-0.02488907,0.09581428,
3211,0.01548489,-0.02188564,
3212,0.00433281,-0.03537645,
3213,0.00438205,0.05696666,
3214,0.0243967,-0.10098412,
3215,0.02028545,-0.03783827,
3216,0.00630228,-0.03636118,
3217,-0.00164942,0.03892148,
3218,0.00130477,-0.01422936,
3219,-0.015091,-0.01541103,
3220,0.0017479,0.01413088,
3221,-0.00494827,-0.00140324,
3222,0.0010832,-0.03291462,
3223,0.00950265,-0.03252073,
3224,-0.00809941,-0.01459863,
3225,-0.01139826,0.04433749,
3226,-0.00292957,0.0243967,
3227,-0.00494827,-0.10221503,
3228,0.03062512,0.04101403,
3229,0.01201371,-0.00728701,
3230,-0.01484481,-0.01959614,
3231,0.00211717,0.00238797,
3232,0.00851792,-0.03399782,
3233,-0.01299844,-0.04143254,
3234,-0.0130723,0.09298318,
3235,0.01068433,0.02784326,
3236,-0.00115706,-0.00071393,
3237,-0.00992116,-0.08202806,
3238,0.00965036,-0.01314615,
3239,0.00809941,-0.03119134,
3240,-0.01161982,0.02402743,
3241,0.0033727,-0.00659769,
3242,0.01888221,0.05152603,
3243,0.01730664,-0.04290963,
3244,0.00706544,0.02727704,
3245,-0.00268339,-0.07232846,
3246,0.00571144,-0.00561296,
3247,0.00366812,-0.05694205,
3248,0.02107323,0.05123061,
3249,-0.00029542,0.04239265,
3250,0.01701122,-0.11541042,
3251,-0.00440667,-0.02070396,
3252,-0.00113244,0.01139826,
3253,-0.00711468,-0.01733126,
3254,-0.01149673,-0.03173294,
3255,-0.01171829,0.08798568,
3256,-0.00851792,-0.03128981,
3257,0.01531256,-0.02515987,
3258,-0.00928109,-0.02353506,
3259,-0.00649922,0.06902961,
3260,0.00064007,-0.01568183,
3261,0.00755781,0.04675008,
3262,0.00913338,-0.01459863,
3263,0.00891181,0.02149174,
3264,0.02395357,-0.07104831,
3265,0.00292957,0.00425896,
3266,0.00576067,-0.10706483,
3267,0.00263415,0.09431257,
3268,0.00280648,-0.09214616,
3269,0.01322001,-0.04217109,
3270,-0.02063011,-0.06161952,
3271,0.00241259,0.0932786,
3272,-0.00411125,-0.02688314,
3273,-0.02365815,0.04416517,
3274,-0.01885759,-0.03419477,
3275,0.00612995,-0.0930078,
3276,0.00610533,-0.00078778,
3277,-0.00224026,-0.01484481,
3278,0.02577532,-0.02045778,
3279,0.0125307,0.04549455,
3280,0.00925647,0.00805017,
3281,-0.00854254,-0.015091,
3282,0.01134902,-0.0423188,
3283,-0.00649922,-0.0731901,
3284,0.00625304,0.02774478,
3285,0.0200885,-0.02604612,
3286,0.00489903,0.01836523,
3287,0.00782861,-0.01868526,
3288,0.01829137,0.0292465,
3289,-0.00718853,-0.01420474,
3290,0.01393394,0.00672079,
3291,0.00288034,-0.04551917,
3292,0.01088127,-0.00384045,
3293,0.02095014,0.03173294,
3294,-0.00460362,-0.01912839,
3295,0.00753319,-0.0691527,
3296,-0.02343659,-0.01129978,
3297,-0.01110284,0.00022156,
3298,-0.01691275,0.02107323,
3299,0.00152633,-0.00989654,
3300,0.0008124,0.0235843,
3301,0.00460362,-0.02557838,
3302,-0.00226488,0.06464756,
3303,-0.00773013,-0.05115675,
3304,0.0121368,-0.02515987,
3305,0.01560798,-0.01910377,
3306,-0.0020187,0.01398317,
3307,-0.00509598,0.00440667,
3308,-0.00411125,0.0195469,
3309,0.00622842,-0.00448052,
3310,0.00489903,-0.04519913,
3311,-0.00918261,0.03215145,
3312,-0.00265877,0.12498693,
3313,0.01878374,-0.09842382,
3314,0.02651387,-0.09647898,
3315,0.00780399,0.04034934,
3316,0.01351543,0.00236335,
3317,0.00105859,-0.01893145,
3318,0.02417514,0.06164413,
3319,-0.03321004,0.00216641,
3320,0.01408165,0.00288034,
3321,-0.00649922,-0.07168839,
3322,0.00662231,0.0264154,
3323,0.02171331,-0.01607573,
3324,0.01090589,0.04096479,
3325,0.00497289,-0.04199876,
3326,-0.00502213,-0.01651886,
3327,0.01196448,-0.0175282,
3328,-0.00302805,0.00878872,
3329,-0.01036429,-0.00571144,
3330,0.01250608,-0.09214616,
3331,0.00428358,-0.01848832,
3332,0.00896105,0.08008321,
3333,-0.0246675,-0.08340668,
3334,-0.005933,0.04140792,
3335,0.01959614,-0.05716361,
3336,0.01129978,-0.00901028,
3337,-0.01134902,0.06248115,
3338,-0.00992116,-0.05598193,
3339,0.01543565,0.11664134,
3340,0.01065971,0.00019695,
3341,0.00034466,-0.0474394,
3342,0.01715893,-0.06366283,
3343,-0.01962076,-0.01368775,
3344,-0.00103397,-0.01656809,
3345,0.01026582,-0.0031019,
3346,-0.01216142,-0.015091,
3347,0.02257495,0.02579994,
3348,-0.00955189,-0.00386507,
3349,-0.00167404,0.19495204,
3350,0.00388969,-0.15428266,
3351,-0.00056622,-0.02680929,
3352,0.00263415,-0.00118168,
3353,0.0122599,0.00977345,
3354,0.01885759,0.03739514,
3355,-0.01555874,0.0187345,
3356,0.06821721,-0.13018138,
3357,0.00731162,-0.03461328,
3358,-0.00915799,0.01386008,
3359,0.01373699,-0.02813868,
3360,0.01272764,0.00472671,
3361,-0.00546525,-0.01125055,
3362,-0.00563758,-0.00420972,
3363,0.00470209,0.03845373,
3364,-0.01713431,-0.03601652,
3365,-0.0133431,0.00285572,
3366,-0.00354503,0.02306731,
3367,-0.00721315,0.03481023,
3368,-0.01147211,0.00667155,
3369,0.0153618,-0.02865566,
3370,0.01376161,-0.01075818,
3371,-0.00194484,0.06777408,
3372,-0.00315114,-0.08384981,
3373,0.02173793,-0.06120101,
3374,-0.00051698,-0.06777408,
3375,-0.00731162,0.01287535,
3376,0.00694235,-0.00066469,
3377,-0.00699159,0.01093051,
3378,-0.02013774,0.04428826,
3379,0.02902493,-0.09940855,
3380,0.03220069,-0.02616921,
3381,-0.01152135,-0.00066469,
3382,0.01075818,0.03564725,
3383,-0.01738049,-0.00268339,
3384,-0.01201371,-0.01302306,
3385,-0.00145248,-0.04359895,
3386,0.00915799,0.02717856,
3387,-0.01912839,0.00118168,
3388,0.00260954,-0.02016236,
3389,0.01216142,0.01368775,
3390,0.00571144,-0.17781772,
3391,-0.00521907,0.08719789,
3392,-0.00893643,0.015091,
3393,-0.0153618,0.09197384,
3394,0.00226488,-0.08744407,
3395,0.02961577,-0.02193487,
3396,-0.01979308,-0.04140792,
3397,-0.04655314,0.070359,
3398,-0.01336772,-0.05056591,
3399,-0.00324961,-0.06642008,
3400,0.01499252,-0.05635121,
3401,0.01019196,-0.00502213,
3402,0.0095765,-0.07355937,
3403,0.00834559,0.06947274,
3404,-0.0053914,0.09357402,
3405,0.00901028,-0.04153101,
3406,0.02149174,-0.00743472,
3407,-0.00563758,-0.06058555,
3408,-0.01344157,0.0459623,
3409,-0.02599689,-0.01826675,
3410,0.00546525,0.01381085,
3411,0.02348582,-0.00329885,
3412,0.00194484,0.00448052,
3413,0.00814865,0.00753319,
3414,-0.00317576,-0.06206264,
3415,0.00519445,0.071713,
3416,0.00905952,0.04657776,
3417,-0.0008124,-0.06440138,
3418,0.02159022,-0.0110536,
3419,0.00878872,-0.1202356,
3420,-0.01048738,0.05098443,
3421,0.00654846,-0.0272278,
3422,0.00034466,-0.00334808,
3423,-0.00681926,0.01420474,
3424,-0.00152633,0.01706046,
3425,0.00401278,0.00704082,
3426,0.00039389,0.00546525,
3427,0.01868526,-0.05315083,
3428,0.00115706,-0.05605579,
3429,0.00819788,0.0632197,
3430,0.00502213,-0.01989156,
3431,-0.01656809,0.00241259,
3432,0.0008124,-0.05088595,
3433,-0.01336772,-0.00851792,
3434,-0.0048498,-0.03389935,
3435,0.00251106,-0.02168869,
3436,0.00792708,-0.04458368,
3437,-0.01930072,0.04276193,
3438,-0.0036435,-0.12954131,
3439,0.00974883,-0.03389935,
3440,-0.00366812,0.00386507,
3441,0.00083702,0.02033469,
3442,-0.00704082,-0.08121565,
3443,-0.00563758,-0.00777937,
3444,-0.00248644,-0.0203593,
3445,0.00137862,0.08330821,
3446,-0.00699159,-0.14468154,
3447,-0.02644002,0.00317576,
3448,0.04903958,-0.06452447,
3449,0.0159034,-0.00297881,
3450,0.02395357,-0.04106326,
3451,-0.01713431,0.07799066,
3452,-0.0025603,0.00327423,
3453,0.02077782,-0.03510564,
3454,0.01486943,-0.00243721,
3455,-0.0022895,0.01804519,
3456,-0.00470209,-0.03995544,
3457,0.00524369,-0.01413088,
3458,0.00743472,-0.03577034,
3459,-0.01294921,0.04377127,
3460,0.00007385,0.10366751,
3461,-0.02011312,0.00273263,
3462,0.00145248,0.00706544,
3463,0.00182175,-0.04022624,
3464,0.00893643,-0.00440667,
3465,0.02225491,0.01041353,
3466,0.00076317,-0.05324931,
3467,-0.01075818,-0.00576067,
3468,0.00499751,0.05706514,
3469,-0.01733126,-0.00992116,
3470,-0.00760704,-0.031536,
3471,0.01533718,-0.02294422,
3472,0.01235837,-0.00329885,
3473,0.010512,0.02784326,
3474,-0.00396354,-0.04391898,
3475,-0.00366812,-0.03451481,
3476,-0.0121368,0.01789748,
3477,-0.0079517,-0.08269275,
3478,-0.00561296,0.05721285,
3479,-0.00285572,-0.00398816,
3480,0.010512,-0.04450982,
3481,-0.00105859,0.00162481,
3482,-0.01851293,0.03197913,
3483,-0.01125055,-0.00736086,
3484,-0.00829636,-0.00548987,
3485,-0.00753319,0.02095014,
3486,-0.02415052,0.06134871,
3487,-0.01688813,0.03510564,
3488,0.02481521,-0.04571612,
3489,-0.00251106,-0.08609007,
3490,-0.01339234,0.01029043,
3491,0.02405204,-0.13961018,
3492,0.01560798,0.00605609,
3493,-0.00327423,-0.08705018,
3494,-0.0095765,0.0547264,
3495,-0.01085665,-0.02161484,
3496,0.00733624,-0.08675476,
3497,0.00379121,0.02343659,
3498,-0.01363852,0.01814366,
3499,0.00987192,0.03399782,
3500,0.00595762,-0.06193955,
3501,0.01560798,0.12363292,
3502,-0.0093057,0.00137862,
3503,0.00967498,-0.10736025,
3504,0.02119633,0.04362356,
3505,-0.00224026,-0.01189062,
3506,0.00268339,0.02479059,
3507,0.00041851,-0.05159988,
3508,-0.01142287,-0.01297383,
3509,-0.00827174,-0.03744438,
3510,-0.00137862,0.03867529,
3511,-0.02456903,0.04249112,
3512,-0.00290496,-0.05460331,
3513,0.02257495,-0.00770552,
3514,0.0121368,-0.08965972,
3515,0.00777937,-0.02259957,
3516,0.01646962,0.03559801,
3517,0.00524369,0.00736086,
3518,0.00022156,0.01706046,
3519,0.00773013,0.005933,
3520,0.00920723,-0.00241259,
3521,0.00819788,-0.04778405,
3522,0.00711468,0.03916766,
3523,0.00534216,0.03650889,
3524,0.00580991,-0.03392397,
3525,-0.01319539,-0.00992116,
3526,-0.00032004,0.02200873,
3527,-0.01038891,0.02171331,
3528,0.00091088,-0.00475133,
3529,-0.00605609,-0.02481521,
3530,-0.00977345,0.03387473,
3531,0.00681926,-0.06420443,
3532,-0.01757744,-0.03468713,
3533,0.01555874,-0.05204301,
3534,0.00807479,0.04943347,
3535,0.01097975,-0.0181929,
3536,-0.00231412,0.03050203,
3537,0.01558336,-0.0349087,
3538,0.00514522,0.01408165,
3539,-0.00034466,-0.02663696,
3540,-0.01794671,-0.0190053,
3541,-0.01573107,0.00817326,
3542,0.00950265,-0.11671519,
3543,0.00913338,0.11033906,
3544,0.00920723,-0.03744438,
3545,0.02306731,-0.07796604,
3546,0.01326924,-0.00654846,
3547,-0.00231412,0.01250608,
3548,0.00204332,0.04470677,
3549,0.01966999,-0.02168869,
3550,-0.01521409,-0.03850297,
3551,0.00194484,0.07306701,
3552,0.00317576,-0.06489374,
3553,-0.00280648,0.02592303,
3554,-0.02360892,0.01216142,
3555,-0.01265379,-0.05401247,
3556,0.00386507,0.01184139,
3557,0.02629231,-0.0231904,
3558,0.00115706,-0.04990122,
3559,0.01314615,0.00347118,
3560,0.02528296,-0.0204824,
3561,0.00657308,-0.0005416,
3562,-0.0289757,0.08453912,
3563,0.00745933,-0.14753726,
3564,0.00502213,-0.09721753,
3565,-0.00105859,-0.01472172,
3566,-0.00854254,0.04884264,
3567,-0.01669118,0.0079517,
3568,-0.00684388,-0.01221066,
3569,0.0040374,-0.13160924,
3570,0.00950265,0.06863572,
3571,0.01036429,0.10009786,
3572,-0.005933,-0.0176513,
3573,0.00659769,0.02503677,
3574,0.02306731,-0.01619882,
3575,-0.00524369,-0.03158523,
3576,0.00128015,0.02860642,
3577,-0.00352041,-0.02764631,
3578,-0.01516485,-0.05484949,
3579,0.00979807,0.02685853,
3580,0.00758243,0.02341197,
3581,-0.00928109,0.01363852,
3582,-0.06494298,-0.01799595,
3583,-0.04389437,-0.06504145,
3584,0.00460362,-0.04426364,
3585,-0.00164942,0.01223528,
3586,0.0190053,-0.00745933,
3587,0.00797632,0.01221066,
3588,-0.00214179,-0.0323484,
3589,0.01216142,0.00423434,
3590,0.01934996,0.03227454,
3591,-0.00322499,0.03141291,
3592,-0.01356466,-0.07739982,
3593,-0.0133431,0.01851293,
3594,0.00743472,-0.12730104,
3595,0.01454939,0.0218364,
3596,-0.01757744,-0.02543067,
3597,0.01777439,-0.01297383,
3598,-0.00448052,0.02122094,
3599,-0.03394859,-0.02853257,
3600,-0.02405204,-0.03264382,
3601,0.03057588,0.01494329,
3602,0.01063509,-0.05713899,
3603,-0.00470209,-0.01553412,
3604,0.00556373,0.04300811,
3605,0.0096996,-0.03628732,
3606,0.01216142,-0.03165909,
3607,0.00475133,-0.0149679,
3608,0.00268339,-0.00617918,
3609,-0.00489903,0.02323964,
3610,0.01418012,0.00211717,
3611,-0.01014272,0.15935402,
3612,-0.0020187,-0.0729193,
3613,0.01942381,-0.12254972,
3614,-0.01632191,0.0773752,
3615,0.01346619,-0.00155095,
3616,-0.02616921,-0.04244189,
3617,-0.01533718,-0.04844874,
3618,0.00807479,0.01659271,
3619,0.01314615,-0.00965036,
3620,0.01043814,0.02346121,
3621,0.02562761,-0.01629729,
3622,-0.01474634,-0.00699159,
3623,0.00315114,0.00260954,
3624,0.00083702,0.02023621,
3625,0.00130477,0.00152633,
3626,0.0090349,-0.03611499,
3627,-0.00231412,0.02262418,
3628,-0.01147211,0.09106296,
3629,-0.03264382,0.12774417,
3630,-0.00285572,-0.05211687,
3631,0.00792708,-0.0583699,
3632,0.01063509,-0.04753787,
3633,0.00844406,-0.03318542,
3634,0.02107323,0.00507136,
3635,-0.0040374,0.09480494,
3636,0.00630228,0.01614958,
3637,0.00083702,-0.01885759,
3638,0.01115207,-0.01459863,
3639,0.00507136,0.04010315,
3640,0.00649922,-0.06489374,
3641,-0.01701122,-0.05997009,
3642,0.01331848,0.01016734,
3643,-0.02902493,0.06422905,
3644,0.00096011,-0.03783827,
3645,-0.00832097,-0.01678966,
3646,-0.00334808,-0.00361888,
3647,-0.01302306,-0.08362824,
3648,0.02131942,-0.04128483,
3649,0.0159034,0.07690746,
3650,-0.00388969,-0.04133407,
3651,-0.00612995,0.15022065,
3652,0.01708508,-0.08291431,
3653,0.00071393,0.00366812,
3654,-0.00297881,-0.02444594,
3655,-0.00297881,-0.05349549,
3656,0.0020187,0.14005331,
3657,-0.01016734,-0.12919665,
3658,0.01154597,-0.03609038,
3659,-0.01811904,-0.02651387,
3660,0.01504176,-0.0718361,
3661,0.00140324,0.05470178,
3662,0.00580991,0.04992584,
3663,-0.00866563,-0.06125024,
3664,-0.00452976,0.01400779,
3665,0.00182175,0.06848801,
3666,0.00440667,-0.03160985,
3667,0.00723777,-0.04940886,
3668,-0.00583453,0.04229418,
3669,0.02964039,0.02968963,
3670,-0.02124556,-0.0777691,
3671,-0.00009847,0.02863104,
3672,-0.00605609,-0.03239764,
3673,-0.01102898,-0.08668091,
3674,-0.00305266,-0.03727205,
3675,-0.0107828,-0.13362794,
3676,0.03756747,0.15947712,
3677,-0.00280648,-0.04044781,
3678,0.00145248,0.03488408,
3679,0.00416049,-0.02011312,
3680,0.00059084,-0.04785791,
3681,0.00290496,0.01866064,
3682,-0.01454939,-0.14236742,
3683,0.00248644,0.07634124,
3684,0.00649922,-0.02205796,
3685,0.0036435,-0.00206793,
3686,0.00817326,0.03825678,
3687,0.00728701,0.037469,
3688,0.00189561,0.02685853,
3689,-0.02063011,-0.00802555,
3690,-0.01560798,-0.11750298,
3691,0.00839483,0.02611998,
3692,0.00950265,0.02476597,
3693,0.00275725,-0.03057588,
3694,0.01472172,0.04522375,
3695,-0.00339732,0.03798598,
3696,0.00494827,0.0287049,
3697,0.02922188,-0.0688819,
3698,0.01228451,-0.03252073,
3699,-0.01750359,-0.02648925,
3700,-0.00499751,-0.10876349,
3701,-0.0020187,0.04458368,
3702,0.02026083,-0.11479497,
3703,0.00083702,0.07227922,
3704,0.01324463,0.00625304,
3705,-0.01363852,-0.00251106,
3706,-0.00521907,-0.01381085,
3707,0.00809941,0.01420474,
3708,-0.00041851,-0.02508601,
3709,0.02001465,0.07269773,
3710,0.02390433,-0.11080681,
3711,-0.00792708,0.00568682,
3712,-0.00064007,-0.02346121,
3713,0.02998505,-0.09571581,
3714,0.00704082,0.03609038,
3715,0.02742475,0.0731901,
3716,-0.00312652,-0.0423188,
3717,-0.00908414,0.0082225,
3718,-0.01457401,-0.02159022,
3719,0.01619882,-0.0393646,
3720,0.00450514,-0.0711714,
3721,-0.00644999,0.03254535,
3722,-0.01740511,0.05374167,
3723,-0.00428358,-0.04859645,
3724,0.01270302,0.00617918,
3725,0.0095765,-0.00071393,
3726,-0.02964039,-0.07154068,
3727,0.00329885,-0.01245684,
3728,0.00881334,-0.01999003,
3729,-0.01930072,0.01056124,
3730,-0.0295173,-0.01134902,
3731,0.01245684,-0.01851293,
3732,-0.0033727,-0.09554348,
3733,0.00448052,-0.0261446,
3734,0.01228451,-0.11609973,
3735,-0.0095765,0.00637613,
3736,-0.00125553,-0.05137832,
3737,-0.00475133,0.02717856,
3738,-0.01127517,-0.03862606,
3739,-0.00068931,-0.04374666,
3740,-0.00386507,0.0400293,
3741,0.00118168,0.00359427,
3742,-0.00128015,-0.01664195,
3743,0.00041851,-0.02077782,
3744,0.00672079,0.00561296,
3745,-0.01408165,-0.00622842,
3746,-0.00243721,0.01582954,
3747,0.00450514,0.03845373,
3748,0.00881334,-0.0501474,
3749,0.00519445,-0.0235843,
3750,0.01257993,0.04239265,
3751,-0.00189561,0.00856716,
3752,-0.01053662,-0.06312123,
3753,-0.00558835,-0.05265847,
3754,-0.00396354,0.00630228,
3755,-0.00743472,0.0094288,
3756,-0.00157557,-0.07222999,
3757,-0.00568682,0.0521661,
3758,-0.0144263,-0.03616423,
3759,0.0087641,0.00019695,
3760,0.0022895,-0.01856217,
3761,-0.00632689,0.04460829,
3762,0.0115952,-0.00169866,
3763,0.0102412,-0.0590346,
3764,0.00268339,0.00514522,
3765,0.00401278,-0.00785323,
3766,-0.00322499,-0.06728172,
3767,0.00206793,0.00531755,
3768,-0.00243721,0.04236803,
3769,0.00288034,-0.0149679,
3770,-0.00979807,-0.05179683,
3771,-0.00888719,0.0235843,
3772,0.00753319,-0.0187345,
3773,-0.00359427,-0.02097476,
3774,-0.00189561,0.04303273,
3775,0.01553412,-0.04126021,
3776,0.00608071,0.00342194,
3777,-0.00260954,-0.03601652,
3778,0.00401278,0.02983734,
3779,-0.00546525,-0.01410627,
3780,0.00866563,0.00955189,
3781,0.01814366,0.00118168,
3782,-0.01085665,0.03431786,
3783,-0.01868526,0.05942849,
3784,0.00571144,-0.0593054,
3785,-0.00379121,-0.03756747,
3786,0.00617918,0.01383546,
3787,0.00785323,-0.04903958,
3788,0.00105859,0.01646962,
3789,-0.00669617,0.03183142,
3790,-0.01841446,-0.03941384,
3791,-0.00315114,-0.01779901,
3792,0.031536,-0.04310658,
3793,0.00268339,0.01437707,
3794,-0.01533718,-0.07663666,
3795,0.01454939,-0.00002462,
3796,0.00194484,0.0095765,
3797,0.01831599,0.05275694,
3798,-0.00706544,-0.07518418,
3799,0.00681926,0.06250577,
3800,-0.00361888,-0.00588377,
3801,-0.00654846,-0.19253945,
3802,0.00450514,0.1696937,
3803,0.01299844,0.04015239,
3804,-0.00548987,-0.05076286,
3805,0.01802057,0.07806452,
3806,0.00748395,-0.09364788,
3807,0.01398317,-0.06014242,
3808,-0.00241259,0.02407666,
3809,0.00563758,-0.02555376,
3810,-0.01102898,0.03244687,
3811,-0.00728701,0.01061047,
3812,-0.00312652,-0.031536,
3813,0.01324463,0.02284575,
3814,-0.00071393,0.03498255,
3815,-0.00066469,0.05140294,
3816,-0.01004425,-0.05676972,
3817,0.01302306,0.01597725,
3818,-0.00398816,-0.01804519,
3819,-0.0051206,-0.05423404,
3820,0.00760704,-0.03697663,
3821,0.00605609,0.04207261,
3822,0.00192022,0.00878872,
3823,0.02188564,-0.11834,
3824,0.01240761,0.04244189,
3825,-0.00194484,0.01309692,
3826,-0.00667155,-0.02927112,
3827,0.00420972,0.04869493,
3828,0.02186102,-0.0079517,
3829,0.01127517,-0.00280648,
3830,-0.00093549,0.0451499,
3831,0.0017479,-0.0686111,
3832,0.0067454,-0.04194952,
3833,-0.00334808,0.01959614,
3834,0.0074101,0.00179713,
3835,-0.00435743,-0.02139327,
3836,0.00940418,0.0477102,
3837,-0.00644999,-0.02045778,
3838,-0.01555874,-0.01659271,
3839,-0.00214179,0.03613961,
3840,0.01964537,-0.03178218,
3841,0.00571144,0.02872951,
3842,-0.00376659,-0.06385978,
3843,-0.01056124,-0.09655283,
3844,0.00068931,-0.07464258,
3845,0.00937956,0.04007853,
3846,-0.00883796,0.08286508,
3847,0.02488907,-0.07070366,
3848,-0.00275725,-0.11834,
3849,0.02309193,0.03776442,
3850,-0.00002462,-0.00866563,
3851,0.00462823,0.02626769,
3852,-0.01740511,-0.0175282,
3853,0.00982269,0.03874915,
3854,0.00302805,-0.02764631,
3855,-0.01779901,0.01001963,
3856,-0.00091088,0.01065971,
3857,-0.01533718,-0.04153101,
3858,0.0195469,0.01531256,
3859,-0.00066469,-0.05024588,
3860,-0.0033727,0.05384014,
3861,-0.00115706,0.10878811,
3862,0.00103397,-0.14066876,
3863,0.00206793,-0.01262917,
3864,0.00733624,-0.05480026,
3865,-0.0053914,0.02070396,
3866,0.00531755,-0.03830602,
3867,0.00514522,-0.00851792,
3868,0.00292957,0.02656311,
3869,0.00044313,-0.00113244,
3870,0.00204332,0.01191524,
3871,-0.0022895,-0.03874915,
3872,0.01043814,0.02296884,
3873,0.03220069,0.02973886,
3874,-0.01565722,-0.05795139,
3875,-0.02205796,-0.00482518,
3876,-0.01031505,0.01774977,
3877,0.00940418,0.00032004,
3878,-0.01866064,-0.08057558,
3879,-0.00773013,-0.01676504,
3880,0.00718853,-0.00004924,
3881,0.01782362,-0.0074101,
3882,0.01484481,-0.02865566,
3883,0.00059084,0.00324961,
3884,-0.00051698,-0.00829636,
3885,0.00022156,-0.07316548,
3886,-0.00888719,0.05664663,
3887,-0.02821253,0.07616891,
3888,-0.01573107,0.02333811,
3889,0.00019695,-0.02159022,
3890,-0.0144263,-0.10871426,
3891,-0.03439172,-0.09069369,
3892,0.02946806,-0.0285818,
3893,0.01642038,-0.0393646,
3894,0.00359427,0.06484451,
3895,0.01905454,-0.00322499,
3896,-0.01326924,-0.05780368,
3897,-0.01265379,0.06821721,
3898,-0.00290496,-0.02353506,
3899,-0.01085665,0.04276193,
3900,0.00576067,-0.01152135,
3901,0.01324463,-0.00034466,
3902,0.01462325,0.01004425,
3903,-0.00994578,-0.00933032,
3904,0.00965036,-0.02072858,
3905,-0.00585915,0.03010814,
3906,-0.00150171,0.00125553,
3907,-0.00044313,-0.02872951,
3908,-0.00524369,0.08328359,
3909,0.00401278,0.01902992,
3910,0.00416049,0.02171331,
3911,0.00617918,-0.07698131,
3912,0.00915799,0.00841945,
3913,0.00029542,-0.00839483,
3914,-0.00563758,0.00150171,
3915,-0.00029542,0.00206793,
3916,-0.00014771,-0.02513525,
3917,0.00420972,0.02058087,
3918,-0.00179713,-0.01016734,
3919,0.00600686,0.02077782,
3920,0.00952727,-0.01910377,
3921,-0.0067454,-0.01314615,
3922,0.00544064,-0.02801558,
3923,0.00908414,0.04224494,
3924,0.00526831,-0.04416517,
3925,-0.00066469,-0.02801558,
3926,-0.00773013,0.01966999,
3927,0.02279651,0.0362627,
3928,0.00755781,0.02309193,
3929,-0.00573606,-0.03067436,
3930,0.04433749,0.03488408,
3931,0.00711468,-0.04249112,
3932,-0.01430321,0.05864071,
3933,-0.01240761,0.03419477,
3934,0.01100436,-0.00352041,
3935,-0.01265379,-0.01511561,
3936,0.00531755,-0.01198909,
3937,-0.00563758,-0.07675975,
3938,-0.00851792,0.00044313,
3939,0.00379121,-0.00625304,
3940,0.00679464,0.01659271,
3941,-0.00059084,0.02533219,
3942,-0.01349081,-0.08515458,
3943,0.00908414,0.06317047,
3944,-0.00374198,0.00608071,
3945,0.00933032,0.04943347,
3946,0.01659271,-0.10551388,
3947,0.00359427,0.01898068,
3948,0.00100935,0.00425896,
3949,-0.00243721,-0.01262917,
3950,0.01115207,-0.01043814,
3951,0.011866,0.02171331,
3952,0.01344157,-0.0233135,
3953,-0.00610533,-0.01789748,
3954,0.00167404,0.01418012,
3955,0.00977345,-0.01277688,
3956,-0.02259957,-0.03633656,
3957,0.01947305,0.00699159,
3958,-0.0033727,0.02611998,
3959,0.00059084,-0.02872951,
3960,0.01326924,0.00248644,
3961,-0.00433281,-0.01418012,
3962,-0.00192022,-0.02159022,
3963,-0.0031019,0.05548957,
3964,0.0257507,0.04507604,
3965,0.01029043,-0.03355469,
3966,-0.00334808,-0.10164881,
3967,-0.00979807,-0.01014272,
3968,-0.01757744,0.05689281,
3969,0.02063011,-0.00691773,
3970,-0.00361888,0.00096011,
3971,-0.00103397,-0.01363852,
3972,0.00558835,0.00388969,
3973,-0.01947305,-0.01445092,
3974,0.00521907,-0.01176753,
3975,0.01789748,-0.03293924,
3976,-0.005933,-0.00770552,
3977,-0.00278186,-0.00548987,
3978,0.00194484,0.01016734,
3979,-0.01782362,-0.02208258,
3980,-0.01270302,0.03338237,
3981,0.00361888,-0.00032004,
3982,-0.0148202,-0.00275725,
3983,0.03515488,0.02355968,
3984,-0.02323964,0.03562263,
3985,0.03862606,-0.02274728,
3986,0.02700624,-0.02823715,
3987,-0.00585915,0.16602557,
3988,-0.00937956,-0.0416541,
3989,0.0272278,-0.21986572,
3990,-0.00630228,0.12867967,
3991,0.02811406,0.03675507,
3992,0.00672079,-0.03478561,
3993,0.00440667,0.00937956,
3994,0.00630228,0.06248115,
3995,-0.00224026,-0.00920723,
3996,0.00152633,0.03067436,
3997,-0.00659769,-0.02501216,
3998,0.02151636,-0.01272764,
3999,0.02255033,-0.01036429,
4000,-0.00733624,-0.00797632,
4001,0.0010832,0.02454441,
4002,0.01203833,0.05681895,
4003,0.00704082,-0.04803023,
4004,-0.00137862,-0.14157964,
4005,-0.01457401,0.03069898,
4006,0.00398816,0.01149673,
4007,-0.00206793,-0.03579496,
4008,0.00706544,-0.12200812,
4009,-0.0115952,0.07678437,
4010,-0.03128981,0.04426364,
4011,0.0020187,-0.01080742,
4012,0.0040374,-0.07762139,
4013,-0.00556373,-0.0664447,
4014,0.00901028,0.04881802,
4015,0.00509598,-0.01570645,
4016,-0.0002708,-0.00937956,
4017,0.00462823,0.00499751,
4018,-0.00420972,-0.01568183,
4019,-0.01582954,0.06297352,
4020,-0.02109785,0.05484949,
4021,0.00896105,-0.02826177,
4022,0.0067454,-0.03190527,
4023,-0.00083702,-0.01627267,
4024,0.00199408,0.01851293,
4025,-0.00610533,-0.01585416,
4026,0.00819788,-0.06681397,
4027,-0.00773013,0.05273232,
4028,0.00908414,-0.13382488,
4029,0.00832097,0.06619851,
4030,0.00103397,0.00142786,
4031,0.01277688,0.01164444,
4032,0.01866064,-0.03761671,
4033,-0.00241259,-0.01112746,
4034,0.00315114,0.04635619,
4035,-0.00334808,-0.02127018,
4036,0.0025603,-0.0529785,
4037,0.00649922,0.06570615,
4038,0.00059084,0.07355937,
4039,-0.01233375,-0.06949736,
4040,-0.01619882,0.04426364,
4041,-0.00896105,-0.01484481,
4042,0.01962076,-0.03769056,
4043,-0.00019695,-0.02360892,
4044,0.01201371,-0.03244687,
4045,0.00758243,0.07491338,
4046,0.00881334,-0.03069898,
4047,0.01344157,-0.00487442,
4048,-0.01541103,-0.02742475,
4049,0.00199408,0.01996541,
4050,0.00361888,0.09485417,
4051,0.00290496,-0.01117669,
4052,-0.00231412,-0.03498255,
4053,0.00420972,-0.07887692,
4054,-0.00071393,0.04433749,
4055,0.00745933,0.04943347,
4056,-0.00521907,-0.01053662,
4057,-0.00465285,-0.04094017,
4058,0.00625304,-0.02863104,
4059,0.02488907,-0.0601178,
4060,0.00937956,-0.00083702,
4061,0.02840948,-0.092737,
4062,-0.00359427,-0.00758243,
4063,0.01504176,-0.0218364,
4064,0.00891181,-0.0175282,
4065,-0.01683889,0.00605609,
4066,-0.00955189,0.00088626,
4067,-0.02065472,0.01824213,
4068,0.00595762,0.01001963,
4069,-0.0172574,0.08951201,
4070,0.01479558,-0.11122532,
4071,0.00241259,0.05900998,
4072,-0.01176753,-0.05878842,
4073,-0.01139826,0.05873918,
4074,0.01257993,-0.02198411,
4075,0.01413088,-0.04354971,
4076,0.01779901,0.03542568,
4077,0.01425398,-0.02483983,
4078,-0.01080742,-0.01841446,
4079,-0.0175282,0.01816828,
4080,0.00007385,0.00118168,
4081,0.00736086,0.0272278,
4082,-0.0051206,-0.04990122,
4083,-0.0008124,-0.05681895,
4084,0.00236335,0.02491368,
4085,0.00349579,-0.0068685,
4086,0.00322499,0.0176513,
4087,0.0102412,0.02333811,
4088,0.00785323,-0.02058087,
4089,-0.00428358,-0.0203593,
4090,0.00933032,-0.04588844,
4091,-0.0079517,0.05098443,
4092,0.01324463,-0.02823715,
4093,-0.01917763,0.05411094,
4094,0.00132939,-0.09857153,
4095,0.0093057,0.06051169,
4096,0.02195949,0.02946806,
4097,0.02491368,-0.00384045,
4098,0.0146971,-0.01152135,
4099,0.00546525,-0.06176723,
4100,0.00396354,0.03281615,
4101,-0.00288034,0.03013276,
4102,0.00699159,0.00312652,
4103,0.00770552,-0.07978779,
4104,0.00265877,-0.06989125,
4105,-0.00155095,0.03375164,
4106,0.01093051,-0.04869493,
4107,-0.00420972,0.04903958,
4108,-0.02988657,0.06346589,
4109,0.02200873,-0.06383516,
4110,-0.00423434,-0.0138847,
4111,0.01171829,-0.0834313,
4112,-0.00199408,0.04039857,
4113,0.00017233,0.03449019,
4114,0.01139826,-0.10073794,
4115,-0.01398317,0.00007385,
4116,0.00802555,0.01240761,
4117,0.02890184,0.01184139,
4118,-0.00440667,0.01405703,
4119,0.00204332,-0.02419975,
4120,-0.02099938,-0.02114709,
4121,-0.01976847,-0.01405703,
4122,0.01203833,0.02863104,
4123,0.00238797,-0.0788523,
4124,0.01019196,-0.01289997,
4125,-0.00716391,0.02230415,
4126,0.01851293,-0.01930072,
4127,0.00251106,0.02602151,
4128,-0.00667155,0.0590346,
4129,0.01014272,-0.05374167,
4130,0.00022156,0.00878872,
4131,0.01006887,0.04940886,
4132,-0.01102898,-0.01309692,
4133,0.00568682,-0.10883735,
4134,-0.00251106,0.03013276,
4135,-0.01555874,0.02673544,
4136,0.0115952,0.01129978,
4137,-0.00066469,-0.05312621,
4138,-0.00477594,-0.00445591,
4139,-0.01789748,0.00251106,
4140,-0.0195469,0.04094017,
4141,0.01848832,0.01179215,
4142,-0.00832097,0.00423434,
4143,0.01068433,0.0277694,
4144,0.02789249,-0.08348053,
4145,0.00142786,-0.02725242,
4146,-0.00802555,0.03183142,
4147,0.00199408,-0.03197913,
4148,0.00908414,-0.01285073,
4149,0.01221066,0.11095452,
4150,-0.00388969,-0.00462823,
4151,-0.01149673,-0.04967966,
4152,-0.0121368,-0.00004924,
4153,-0.00819788,0.00032004,
4154,-0.00662231,0.02705547,
4155,0.01669118,0.00002462,
4156,0.01585416,-0.00273263,
4157,-0.00347118,-0.00952727,
4158,0.03485946,-0.03776442,
4159,0.0095765,0.01703584,
4160,-0.00386507,-0.01843908,
4161,0.00155095,-0.00292957,
4162,0.00632689,-0.05184606,
4163,-0.00711468,0.00376659,
4164,-0.01683889,-0.0303297,
4165,0.01011811,0.01041353,
4166,0.00509598,-0.04618386,
4167,-0.00681926,0.01893145,
4168,0.01122593,-0.03296386,
4169,0.02469212,-0.0385522,
4170,0.01326924,0.01782362,
4171,0.00211717,0.01925148,
4172,-0.00192022,-0.00039389,
4173,-0.00388969,0.03338237,
4174,0.00699159,-0.04433749,
4175,-0.00226488,-0.00384045,
4176,-0.00322499,-0.08508072,
4177,-0.00644999,0.11100375,
4178,0.00679464,0.0231904,
4179,0.01405703,-0.08744407,
4180,-0.00342194,0.01659271,
4181,0.00893643,0.01068433,
4182,-0.01373699,-0.04207261,
4183,-0.00802555,0.08298817,
4184,0.00214179,-0.04586383,
4185,0.00327423,0.02419975,
4186,-0.00150171,0.01959614,
4187,-0.00118168,-0.0349087,
4188,-0.01312153,-0.0074101,
4189,-0.0121368,-0.00130477,
4190,0.00802555,0.04817794,
4191,-0.00962574,-0.10790185,
4192,0.00558835,-0.00728701,
4193,0.00263415,-0.02262418,
4194,-0.00891181,0.02624307,
4195,0.00263415,-0.00928109,
4196,-0.00137862,0.04527299,
